EDA,Resp,PPG Finger,PPG Ear,arduino_ts,event_code
987.0,1626.0,2033.0,2018.0,5167631.0,
987.0,1625.0,2037.0,2021.0,5167634.0,
987.0,1625.0,2035.0,2025.0,5167638.0,
990.0,1626.0,2035.0,2030.0,5167642.0,
988.0,1625.0,2035.0,2033.0,5167645.0,
987.0,1624.0,2031.0,2036.0,5167649.0,
987.0,1625.0,2035.0,2040.0,5167653.0,
988.0,1626.0,2036.0,2044.0,5167656.0,
987.0,1625.0,2036.0,2048.0,5167660.0,
989.0,1625.0,2038.0,2049.0,5167664.0,
987.0,1625.0,2034.0,2055.0,5167667.0,
987.0,1623.0,2036.0,2056.0,5167671.0,
987.0,1626.0,2038.0,2062.0,5167674.0,
988.0,1626.0,2035.0,2063.0,5167678.0,
987.0,1627.0,2038.0,2068.0,5167682.0,
987.0,1627.0,2037.0,2073.0,5167685.0,
989.0,1624.0,2035.0,2080.0,5167689.0,
990.0,1624.0,2039.0,2084.0,5167693.0,
987.0,1625.0,2039.0,2093.0,5167696.0,
987.0,1627.0,2042.0,2101.0,5167700.0,
988.0,1626.0,2045.0,2110.0,5167703.0,
987.0,1625.0,2047.0,2120.0,5167707.0,
988.0,1625.0,2052.0,2127.0,5167711.0,
989.0,1627.0,2055.0,2136.0,5167714.0,
987.0,1625.0,2060.0,2141.0,5167718.0,
987.0,1626.0,2067.0,2151.0,5167722.0,
987.0,1628.0,2067.0,2158.0,5167725.0,
989.0,1627.0,2073.0,2166.0,5167729.0,
988.0,1624.0,2077.0,2177.0,5167733.0,
987.0,1624.0,2082.0,2188.0,5167736.0,
988.0,1626.0,2083.0,2192.0,5167740.0,
988.0,1625.0,2088.0,2202.0,5167743.0,
988.0,1625.0,2095.0,2211.0,5167747.0,
988.0,1626.0,2100.0,2215.0,5167751.0,
989.0,1625.0,2106.0,2223.0,5167754.0,
988.0,1626.0,2110.0,2226.0,5167758.0,
988.0,1624.0,2115.0,2231.0,5167762.0,
988.0,1624.0,2119.0,2235.0,5167765.0,
989.0,1626.0,2123.0,2240.0,5167769.0,
989.0,1625.0,2128.0,2245.0,5167773.0,
987.0,1624.0,2129.0,2252.0,5167776.0,
988.0,1625.0,2133.0,2255.0,5167780.0,
989.0,1626.0,2136.0,2259.0,5167783.0,
987.0,1626.0,2138.0,2265.0,5167787.0,
990.0,1625.0,2141.0,2270.0,5167791.0,
986.0,1624.0,2141.0,2276.0,5167794.0,
988.0,1628.0,2142.0,2281.0,5167798.0,
988.0,1624.0,2145.0,2280.0,5167802.0,
988.0,1624.0,2148.0,2288.0,5167805.0,
989.0,1624.0,2148.0,2286.0,5167809.0,
988.0,1626.0,2150.0,2287.0,5167812.0,
988.0,1624.0,2151.0,2285.0,5167816.0,
988.0,1624.0,2152.0,2286.0,5167820.0,
988.0,1624.0,2152.0,2283.0,5167823.0,
989.0,1624.0,2153.0,2283.0,5167827.0,
989.0,1625.0,2153.0,2284.0,5167831.0,
990.0,1626.0,2154.0,2280.0,5167834.0,
988.0,1624.0,2153.0,2276.0,5167838.0,
989.0,1626.0,2156.0,2274.0,5167842.0,
988.0,1625.0,2159.0,2269.0,5167845.0,
987.0,1624.0,2160.0,2264.0,5167849.0,
987.0,1623.0,2161.0,2262.0,5167852.0,
988.0,1624.0,2164.0,2262.0,5167856.0,
988.0,1624.0,2164.0,2256.0,5167860.0,
988.0,1624.0,2164.0,2255.0,5167863.0,
988.0,1623.0,2168.0,2245.0,5167867.0,
988.0,1624.0,2167.0,2243.0,5167871.0,
988.0,1624.0,2168.0,2235.0,5167874.0,
987.0,1623.0,2162.0,2233.0,5167878.0,
987.0,1624.0,2164.0,2225.0,5167882.0,
987.0,1623.0,2164.0,2221.0,5167885.0,
989.0,1623.0,2163.0,2215.0,5167889.0,
987.0,1621.0,2163.0,2211.0,5167892.0,
989.0,1626.0,2162.0,2204.0,5167896.0,
987.0,1621.0,2160.0,2200.0,5167900.0,
987.0,1625.0,2161.0,2199.0,5167903.0,
988.0,1624.0,2161.0,2195.0,5167907.0,
987.0,1623.0,2160.0,2190.0,5167911.0,
988.0,1625.0,2161.0,2188.0,5167914.0,
988.0,1623.0,2159.0,2187.0,5167918.0,
989.0,1623.0,2156.0,2185.0,5167922.0,
988.0,1626.0,2157.0,2185.0,5167925.0,
987.0,1623.0,2158.0,2182.0,5167929.0,
987.0,1622.0,2159.0,2184.0,5167932.0,
988.0,1623.0,2158.0,2184.0,5167936.0,
987.0,1626.0,2158.0,2182.0,5167940.0,
988.0,1622.0,2157.0,2182.0,5167943.0,
987.0,1618.0,2160.0,2184.0,5167947.0,
988.0,1625.0,2161.0,2181.0,5167951.0,
989.0,1625.0,2162.0,2185.0,5167954.0,
987.0,1624.0,2164.0,2183.0,5167958.0,
988.0,1623.0,2163.0,2183.0,5167961.0,
987.0,1623.0,2163.0,2184.0,5167965.0,
987.0,1626.0,2161.0,2181.0,5167969.0,
988.0,1624.0,2160.0,2187.0,5167972.0,
988.0,1625.0,2162.0,2184.0,5167976.0,
988.0,1623.0,2168.0,2184.0,5167980.0,
987.0,1624.0,2160.0,2181.0,5167983.0,
994.0,1624.0,2160.0,2177.0,5167987.0,
987.0,1624.0,2162.0,2171.0,5167991.0,
988.0,1624.0,2161.0,2172.0,5167994.0,
987.0,1624.0,2161.0,2165.0,5167998.0,
988.0,1625.0,2162.0,2163.0,5168001.0,
988.0,1624.0,2164.0,2157.0,5168005.0,
987.0,1624.0,2162.0,2155.0,5168009.0,
987.0,1624.0,2165.0,2149.0,5168012.0,
988.0,1623.0,2164.0,2149.0,5168016.0,
987.0,1625.0,2165.0,2146.0,5168020.0,
988.0,1625.0,2165.0,2149.0,5168023.0,
988.0,1624.0,2164.0,2141.0,5168027.0,
988.0,1623.0,2164.0,2143.0,5168031.0,
987.0,1624.0,2166.0,2142.0,5168034.0,
987.0,1625.0,2165.0,2141.0,5168038.0,
986.0,1624.0,2165.0,2137.0,5168041.0,
988.0,1628.0,2168.0,2136.0,5168045.0,
988.0,1625.0,2168.0,2132.0,5168049.0,
991.0,1625.0,2168.0,2128.0,5168052.0,
987.0,1623.0,2169.0,2124.0,5168056.0,
987.0,1625.0,2167.0,2123.0,5168060.0,
988.0,1624.0,2165.0,2119.0,5168063.0,
987.0,1626.0,2163.0,2116.0,5168067.0,
987.0,1625.0,2160.0,2112.0,5168070.0,
985.0,1625.0,2157.0,2110.0,5168074.0,
986.0,1624.0,2156.0,2108.0,5168078.0,
987.0,1623.0,2156.0,2106.0,5168081.0,
988.0,1625.0,2155.0,2101.0,5168085.0,
988.0,1625.0,2153.0,2098.0,5168089.0,
987.0,1623.0,2151.0,2091.0,5168092.0,
987.0,1624.0,2151.0,2087.0,5168096.0,
987.0,1626.0,2152.0,2085.0,5168100.0,
987.0,1625.0,2153.0,2085.0,5168103.0,
986.0,1624.0,2153.0,2079.0,5168107.0,
988.0,1624.0,2151.0,2078.0,5168110.0,
988.0,1626.0,2151.0,2077.0,5168114.0,
987.0,1627.0,2146.0,2072.0,5168118.0,
988.0,1625.0,2147.0,2069.0,5168121.0,
988.0,1625.0,2144.0,2066.0,5168125.0,
986.0,1628.0,2144.0,2063.0,5168129.0,
987.0,1623.0,2141.0,2063.0,5168132.0,
987.0,1626.0,2142.0,2063.0,5168136.0,
987.0,1626.0,2141.0,2060.0,5168140.0,
987.0,1626.0,2142.0,2061.0,5168143.0,
986.0,1626.0,2143.0,2059.0,5168147.0,
986.0,1628.0,2146.0,2057.0,5168150.0,
988.0,1625.0,2143.0,2056.0,5168154.0,
983.0,1623.0,2141.0,2056.0,5168158.0,
987.0,1627.0,2141.0,2059.0,5168161.0,
986.0,1625.0,2142.0,2061.0,5168165.0,
986.0,1624.0,2139.0,2060.0,5168169.0,
987.0,1624.0,2137.0,2058.0,5168172.0,
987.0,1625.0,2136.0,2058.0,5168176.0,
988.0,1625.0,2134.0,2058.0,5168179.0,
987.0,1624.0,2132.0,2056.0,5168183.0,
988.0,1625.0,2131.0,2055.0,5168187.0,
987.0,1623.0,2132.0,2056.0,5168190.0,
987.0,1624.0,2129.0,2055.0,5168194.0,
987.0,1624.0,2126.0,2054.0,5168198.0,
988.0,1624.0,2129.0,2055.0,5168201.0,
987.0,1625.0,2127.0,2053.0,5168205.0,
987.0,1624.0,2126.0,2049.0,5168209.0,
986.0,1624.0,2125.0,2048.0,5168212.0,
987.0,1625.0,2122.0,2046.0,5168216.0,
986.0,1625.0,2118.0,2045.0,5168219.0,
987.0,1623.0,2116.0,2044.0,5168223.0,
986.0,1624.0,2114.0,2039.0,5168227.0,
986.0,1625.0,2111.0,2039.0,5168230.0,
986.0,1623.0,2108.0,2039.0,5168234.0,
988.0,1624.0,2105.0,2037.0,5168238.0,
987.0,1624.0,2100.0,2030.0,5168241.0,
987.0,1623.0,2096.0,2031.0,5168245.0,
987.0,1625.0,2097.0,2027.0,5168249.0,
983.0,1623.0,2093.0,2021.0,5168252.0,
988.0,1624.0,2094.0,2016.0,5168256.0,
988.0,1624.0,2093.0,2014.0,5168259.0,
985.0,1624.0,2093.0,2009.0,5168263.0,
986.0,1623.0,2094.0,2006.0,5168267.0,
986.0,1624.0,2092.0,2007.0,5168270.0,
987.0,1625.0,2093.0,2007.0,5168274.0,
986.0,1623.0,2095.0,2009.0,5168278.0,
988.0,1624.0,2093.0,2008.0,5168281.0,
987.0,1624.0,2094.0,2015.0,5168285.0,
986.0,1624.0,2095.0,2017.0,5168289.0,
987.0,1626.0,2101.0,2024.0,5168292.0,
987.0,1624.0,2098.0,2027.0,5168296.0,
987.0,1624.0,2098.0,2037.0,5168299.0,
985.0,1624.0,2100.0,2037.0,5168303.0,
987.0,1620.0,2102.0,2043.0,5168307.0,
986.0,1623.0,2102.0,2039.0,5168310.0,
985.0,1625.0,2105.0,2042.0,5168314.0,
986.0,1623.0,2101.0,2036.0,5168318.0,
987.0,1623.0,2103.0,2039.0,5168321.0,
986.0,1624.0,2104.0,2040.0,5168325.0,
987.0,1624.0,2103.0,2038.0,5168328.0,
986.0,1623.0,2100.0,2037.0,5168332.0,
987.0,1623.0,2097.0,2035.0,5168336.0,
982.0,1623.0,2098.0,2036.0,5168339.0,
986.0,1623.0,2096.0,2036.0,5168343.0,
985.0,1621.0,2095.0,2034.0,5168347.0,
988.0,1621.0,2091.0,2031.0,5168350.0,
986.0,1623.0,2092.0,2034.0,5168354.0,
986.0,1624.0,2090.0,2033.0,5168358.0,
988.0,1622.0,2088.0,2029.0,5168361.0,
987.0,1621.0,2089.0,2030.0,5168365.0,
986.0,1623.0,2087.0,2031.0,5168368.0,
987.0,1622.0,2086.0,2028.0,5168372.0,
986.0,1622.0,2083.0,2027.0,5168376.0,
985.0,1621.0,2085.0,2023.0,5168379.0,
986.0,1623.0,2087.0,2023.0,5168383.0,
986.0,1621.0,2084.0,2021.0,5168387.0,
986.0,1623.0,2085.0,2020.0,5168390.0,
983.0,1622.0,2085.0,2015.0,5168394.0,
986.0,1620.0,2086.0,2015.0,5168398.0,
985.0,1622.0,2085.0,2015.0,5168401.0,
987.0,1622.0,2086.0,2012.0,5168405.0,
986.0,1622.0,2086.0,2004.0,5168408.0,
986.0,1623.0,2085.0,2013.0,5168412.0,
986.0,1624.0,2084.0,2014.0,5168416.0,
985.0,1621.0,2082.0,2019.0,5168419.0,
990.0,1621.0,2082.0,2021.0,5168423.0,
985.0,1623.0,2080.0,2024.0,5168427.0,
986.0,1623.0,2076.0,2028.0,5168430.0,
986.0,1622.0,2075.0,2034.0,5168434.0,
992.0,1621.0,2072.0,2040.0,5168437.0,
985.0,1622.0,2072.0,2041.0,5168441.0,
985.0,1623.0,2065.0,2051.0,5168445.0,
984.0,1623.0,2069.0,2053.0,5168448.0,
986.0,1624.0,2067.0,2060.0,5168452.0,
985.0,1624.0,2066.0,2067.0,5168456.0,
987.0,1619.0,2064.0,2073.0,5168459.0,
986.0,1622.0,2067.0,2080.0,5168463.0,
984.0,1623.0,2064.0,2087.0,5168467.0,
985.0,1623.0,2066.0,2093.0,5168470.0,
985.0,1628.0,2066.0,2100.0,5168474.0,
985.0,1624.0,2069.0,2106.0,5168477.0,
985.0,1625.0,2071.0,2113.0,5168481.0,
985.0,1623.0,2072.0,2120.0,5168485.0,
984.0,1624.0,2074.0,2126.0,5168488.0,
984.0,1625.0,2078.0,2134.0,5168492.0,
987.0,1624.0,2080.0,2141.0,5168496.0,
986.0,1626.0,2084.0,2149.0,5168499.0,
985.0,1627.0,2087.0,2160.0,5168503.0,
988.0,1624.0,2090.0,2169.0,5168507.0,
986.0,1625.0,2098.0,2178.0,5168510.0,
985.0,1625.0,2102.0,2185.0,5168514.0,
985.0,1624.0,2110.0,2191.0,5168517.0,
986.0,1625.0,2115.0,2197.0,5168521.0,
980.0,1624.0,2122.0,2206.0,5168525.0,
986.0,1628.0,2128.0,2208.0,5168528.0,
985.0,1626.0,2137.0,2211.0,5168532.0,
985.0,1626.0,2143.0,2221.0,5168536.0,
985.0,1625.0,2152.0,2224.0,5168539.0,
984.0,1625.0,2159.0,2232.0,5168543.0,
986.0,1630.0,2165.0,2233.0,5168546.0,
984.0,1625.0,2173.0,2235.0,5168550.0,
986.0,1625.0,2176.0,2238.0,5168554.0,
983.0,1624.0,2183.0,2237.0,5168557.0,
984.0,1624.0,2187.0,2239.0,5168561.0,
985.0,1625.0,2192.0,2238.0,5168565.0,
984.0,1625.0,2194.0,2243.0,5168568.0,
985.0,1625.0,2201.0,2246.0,5168572.0,
986.0,1625.0,2206.0,2252.0,5168576.0,
984.0,1627.0,2208.0,2251.0,5168579.0,
985.0,1626.0,2210.0,2258.0,5168583.0,
985.0,1625.0,2215.0,2261.0,5168586.0,
984.0,1626.0,2218.0,2267.0,5168590.0,
985.0,1626.0,2221.0,2271.0,5168594.0,
986.0,1621.0,2224.0,2275.0,5168597.0,
981.0,1625.0,2224.0,2279.0,5168601.0,
985.0,1625.0,2225.0,2283.0,5168605.0,
984.0,1625.0,2219.0,2286.0,5168608.0,
985.0,1625.0,2224.0,2287.0,5168612.0,
984.0,1625.0,2227.0,2291.0,5168616.0,
985.0,1627.0,2225.0,2295.0,5168619.0,
984.0,1626.0,2228.0,2293.0,5168623.0,
985.0,1623.0,2230.0,2295.0,5168626.0,
984.0,1627.0,2228.0,2298.0,5168630.0,
984.0,1626.0,2228.0,2298.0,5168634.0,
985.0,1627.0,2229.0,2301.0,5168637.0,
985.0,1627.0,2227.0,2302.0,5168641.0,
985.0,1625.0,2228.0,2305.0,5168645.0,
984.0,1628.0,2226.0,2303.0,5168648.0,
984.0,1627.0,2227.0,2305.0,5168652.0,
985.0,1629.0,2225.0,2306.0,5168656.0,
985.0,1628.0,2226.0,2302.0,5168659.0,
985.0,1632.0,2224.0,2304.0,5168663.0,
985.0,1628.0,2225.0,2298.0,5168666.0,
984.0,1628.0,2226.0,2294.0,5168670.0,
988.0,1626.0,2224.0,2286.0,5168674.0,
985.0,1629.0,2223.0,2280.0,5168677.0,
986.0,1628.0,2222.0,2275.0,5168681.0,
985.0,1629.0,2223.0,2267.0,5168685.0,
985.0,1628.0,2222.0,2257.0,5168688.0,
985.0,1629.0,2219.0,2252.0,5168692.0,
984.0,1628.0,2218.0,2243.0,5168695.0,
985.0,1630.0,2217.0,2238.0,5168699.0,
984.0,1624.0,2216.0,2230.0,5168703.0,
983.0,1631.0,2217.0,2221.0,5168706.0,
985.0,1628.0,2215.0,2215.0,5168710.0,
984.0,1630.0,2214.0,2212.0,5168714.0,
984.0,1632.0,2212.0,2207.0,5168717.0,
985.0,1630.0,2212.0,2198.0,5168721.0,
984.0,1628.0,2211.0,2197.0,5168725.0,
985.0,1630.0,2210.0,2194.0,5168728.0,
984.0,1630.0,2208.0,2189.0,5168732.0,
985.0,1629.0,2208.0,2187.0,5168735.0,
983.0,1631.0,2208.0,2184.0,5168739.0,
983.0,1628.0,2207.0,2179.0,5168743.0,
983.0,1630.0,2206.0,2180.0,5168746.0,
983.0,1628.0,2204.0,2171.0,5168750.0,
985.0,1630.0,2202.0,2168.0,5168754.0,
984.0,1630.0,2199.0,2165.0,5168757.0,
983.0,1630.0,2196.0,2162.0,5168761.0,
984.0,1634.0,2192.0,2157.0,5168765.0,
983.0,1632.0,2191.0,2154.0,5168768.0,
984.0,1629.0,2188.0,2150.0,5168772.0,
984.0,1630.0,2187.0,2149.0,5168775.0,
978.0,1631.0,2183.0,2139.0,5168779.0,
985.0,1632.0,2184.0,2139.0,5168783.0,
982.0,1630.0,2179.0,2135.0,5168786.0,
984.0,1631.0,2179.0,2132.0,5168790.0,
983.0,1631.0,2178.0,2127.0,5168794.0,
984.0,1631.0,2175.0,2123.0,5168797.0,
984.0,1629.0,2174.0,2118.0,5168801.0,
984.0,1630.0,2174.0,2114.0,5168804.0,
984.0,1630.0,2172.0,2110.0,5168808.0,
983.0,1630.0,2172.0,2106.0,5168812.0,
991.0,1630.0,2173.0,2103.0,5168815.0,
977.0,1629.0,2169.0,2095.0,5168819.0,
981.0,1632.0,2171.0,2095.0,5168823.0,
984.0,1630.0,2169.0,2090.0,5168826.0,
983.0,1627.0,2170.0,2090.0,5168830.0,
982.0,1629.0,2177.0,2088.0,5168834.0,
983.0,1631.0,2171.0,2088.0,5168837.0,
984.0,1629.0,2168.0,2086.0,5168841.0,
983.0,1629.0,2165.0,2086.0,5168844.0,
983.0,1629.0,2164.0,2082.0,5168848.0,
984.0,1629.0,2162.0,2085.0,5168852.0,
983.0,1631.0,2160.0,2087.0,5168855.0,
983.0,1629.0,2157.0,2088.0,5168859.0,
983.0,1631.0,2156.0,2089.0,5168863.0,
988.0,1631.0,2154.0,2089.0,5168866.0,
983.0,1629.0,2154.0,2092.0,5168870.0,
983.0,1629.0,2149.0,2097.0,5168874.0,
983.0,1629.0,2150.0,2096.0,5168877.0,
983.0,1629.0,2143.0,2093.0,5168881.0,
983.0,1631.0,2146.0,2100.0,5168884.0,
983.0,1629.0,2143.0,2102.0,5168888.0,
983.0,1630.0,2141.0,2102.0,5168892.0,
983.0,1629.0,2143.0,2101.0,5168895.0,
984.0,1629.0,2137.0,2103.0,5168899.0,
983.0,1630.0,2136.0,2101.0,5168903.0,
986.0,1629.0,2136.0,2103.0,5168906.0,
982.0,1629.0,2133.0,2100.0,5168910.0,
983.0,1626.0,2130.0,2103.0,5168914.0,
983.0,1630.0,2129.0,2103.0,5168917.0,
983.0,1629.0,2128.0,2104.0,5168921.0,
982.0,1629.0,2131.0,2099.0,5168924.0,
983.0,1629.0,2126.0,2101.0,5168928.0,
984.0,1627.0,2126.0,2099.0,5168932.0,
983.0,1631.0,2127.0,2095.0,5168935.0,
984.0,1628.0,2129.0,2091.0,5168939.0,
982.0,1627.0,2127.0,2088.0,5168943.0,
983.0,1630.0,2128.0,2084.0,5168946.0,
983.0,1628.0,2128.0,2083.0,5168950.0,
983.0,1628.0,2123.0,2076.0,5168953.0,
985.0,1627.0,2121.0,2071.0,5168957.0,
982.0,1629.0,2122.0,2067.0,5168961.0,
983.0,1631.0,2119.0,2064.0,5168964.0,
983.0,1628.0,2118.0,2059.0,5168968.0,
983.0,1627.0,2116.0,2058.0,5168972.0,
982.0,1628.0,2113.0,2056.0,5168975.0,
981.0,1628.0,2110.0,2050.0,5168979.0,
983.0,1628.0,2105.0,2048.0,5168983.0,
984.0,1626.0,2105.0,2046.0,5168986.0,
982.0,1628.0,2101.0,2047.0,5168990.0,
983.0,1628.0,2098.0,2037.0,5168993.0,
982.0,1627.0,2096.0,2033.0,5168997.0,
982.0,1629.0,2094.0,2034.0,5169001.0,
981.0,1628.0,2091.0,2032.0,5169004.0,
982.0,1627.0,2090.0,2031.0,5169008.0,
983.0,1627.0,2093.0,2029.0,5169012.0,
983.0,1629.0,2090.0,2027.0,5169015.0,
981.0,1629.0,2088.0,2027.0,5169019.0,
982.0,1629.0,2087.0,2028.0,5169023.0,
983.0,1626.0,2085.0,2029.0,5169026.0,
982.0,1627.0,2086.0,2029.0,5169030.0,
981.0,1628.0,2083.0,2030.0,5169033.0,
982.0,1627.0,2084.0,2036.0,5169037.0,
984.0,1628.0,2081.0,2032.0,5169041.0,
982.0,1625.0,2083.0,2033.0,5169044.0,
982.0,1629.0,2084.0,2035.0,5169048.0,
982.0,1630.0,2083.0,2035.0,5169052.0,
974.0,1628.0,2084.0,2034.0,5169055.0,
980.0,1628.0,2084.0,2035.0,5169059.0,
982.0,1630.0,2084.0,2034.0,5169062.0,
983.0,1629.0,2084.0,2035.0,5169066.0,
982.0,1630.0,2086.0,2039.0,5169070.0,
980.0,1628.0,2084.0,2035.0,5169073.0,
982.0,1631.0,2087.0,2038.0,5169077.0,
982.0,1629.0,2089.0,2038.0,5169081.0,
982.0,1631.0,2088.0,2040.0,5169084.0,
983.0,1630.0,2090.0,2036.0,5169088.0,
983.0,1629.0,2090.0,2039.0,5169092.0,
981.0,1630.0,2092.0,2038.0,5169095.0,
981.0,1630.0,2095.0,2038.0,5169099.0,
982.0,1629.0,2095.0,2033.0,5169102.0,
980.0,1628.0,2096.0,2040.0,5169106.0,
981.0,1629.0,2099.0,2031.0,5169110.0,
980.0,1630.0,2100.0,2031.0,5169113.0,
981.0,1626.0,2102.0,2028.0,5169117.0,
981.0,1629.0,2105.0,2027.0,5169121.0,
982.0,1628.0,2104.0,2024.0,5169124.0,
982.0,1631.0,2108.0,2029.0,5169128.0,
981.0,1628.0,2107.0,2027.0,5169132.0,
982.0,1628.0,2107.0,2028.0,5169135.0,
979.0,1628.0,2108.0,2023.0,5169139.0,
982.0,1628.0,2104.0,2027.0,5169142.0,
981.0,1626.0,2108.0,2027.0,5169146.0,
981.0,1627.0,2105.0,2021.0,5169150.0,
981.0,1628.0,2106.0,2023.0,5169153.0,
981.0,1628.0,2105.0,2022.0,5169157.0,
982.0,1628.0,2105.0,2022.0,5169161.0,
980.0,1627.0,2103.0,2020.0,5169164.0,
980.0,1628.0,2105.0,2020.0,5169168.0,
980.0,1631.0,2102.0,2016.0,5169171.0,
981.0,1634.0,2105.0,2016.0,5169175.0,
980.0,1627.0,2103.0,2014.0,5169179.0,
980.0,1627.0,2103.0,2013.0,5169182.0,
978.0,1627.0,2101.0,2014.0,5169186.0,
980.0,1628.0,2104.0,2011.0,5169190.0,
981.0,1627.0,2100.0,2009.0,5169193.0,
981.0,1627.0,2100.0,2007.0,5169197.0,
980.0,1627.0,2099.0,2003.0,5169201.0,
980.0,1630.0,2102.0,2001.0,5169204.0,
980.0,1625.0,2103.0,1999.0,5169208.0,
980.0,1628.0,2105.0,1999.0,5169211.0,
981.0,1627.0,2105.0,2001.0,5169215.0,
980.0,1627.0,2102.0,2001.0,5169219.0,
980.0,1627.0,2100.0,2002.0,5169222.0,
980.0,1627.0,2101.0,2001.0,5169226.0,
980.0,1628.0,2106.0,2005.0,5169230.0,
980.0,1626.0,2103.0,2007.0,5169233.0,
980.0,1625.0,2100.0,2002.0,5169237.0,
979.0,1626.0,2102.0,2008.0,5169241.0,
980.0,1627.0,2100.0,2010.0,5169244.0,
980.0,1629.0,2102.0,2014.0,5169248.0,
981.0,1626.0,2099.0,2019.0,5169251.0,
979.0,1627.0,2098.0,2020.0,5169255.0,
980.0,1627.0,2096.0,2027.0,5169259.0,
980.0,1627.0,2095.0,2031.0,5169262.0,
980.0,1626.0,2095.0,2041.0,5169266.0,
979.0,1626.0,2092.0,2052.0,5169270.0,
981.0,1627.0,2091.0,2051.0,5169273.0,
981.0,1628.0,2090.0,2065.0,5169277.0,
980.0,1626.0,2093.0,2075.0,5169281.0,
980.0,1627.0,2094.0,2084.0,5169284.0,
980.0,1625.0,2092.0,2096.0,5169288.0,
979.0,1628.0,2094.0,2102.0,5169291.0,
979.0,1628.0,2096.0,2115.0,5169295.0,
980.0,1627.0,2096.0,2121.0,5169299.0,
979.0,1627.0,2097.0,2130.0,5169302.0,
979.0,1628.0,2099.0,2137.0,5169306.0,
979.0,1628.0,2102.0,2144.0,5169310.0,
980.0,1628.0,2104.0,2150.0,5169313.0,
985.0,1627.0,2107.0,2159.0,5169317.0,
979.0,1629.0,2114.0,2165.0,5169320.0,
980.0,1628.0,2120.0,2173.0,5169324.0,
979.0,1627.0,2120.0,2179.0,5169328.0,
980.0,1626.0,2126.0,2186.0,5169331.0,
979.0,1626.0,2131.0,2190.0,5169335.0,
979.0,1629.0,2134.0,2196.0,5169339.0,
980.0,1628.0,2140.0,2204.0,5169342.0,
981.0,1628.0,2148.0,2213.0,5169346.0,
979.0,1627.0,2155.0,2219.0,5169350.0,
979.0,1628.0,2159.0,2227.0,5169353.0,
980.0,1627.0,2167.0,2235.0,5169357.0,
971.0,1627.0,2174.0,2242.0,5169360.0,
979.0,1630.0,2180.0,2248.0,5169364.0,
980.0,1626.0,2188.0,2252.0,5169368.0,
980.0,1625.0,2195.0,2257.0,5169371.0,
986.0,1628.0,2200.0,2259.0,5169375.0,
980.0,1629.0,2208.0,2268.0,5169379.0,
980.0,1628.0,2213.0,2272.0,5169382.0,
980.0,1627.0,2217.0,2276.0,5169386.0,
979.0,1627.0,2221.0,2280.0,5169390.0,
978.0,1631.0,2225.0,2282.0,5169393.0,
981.0,1628.0,2225.0,2286.0,5169397.0,
982.0,1626.0,2231.0,2287.0,5169400.0,
978.0,1627.0,2232.0,2291.0,5169404.0,
979.0,1626.0,2239.0,2293.0,5169408.0,
980.0,1627.0,2241.0,2296.0,5169411.0,
979.0,1626.0,2241.0,2298.0,5169415.0,
980.0,1628.0,2248.0,2302.0,5169419.0,
978.0,1627.0,2245.0,2303.0,5169422.0,
980.0,1628.0,2247.0,2306.0,5169426.0,
977.0,1627.0,2250.0,2305.0,5169429.0,
978.0,1627.0,2249.0,2303.0,5169433.0,
978.0,1625.0,2244.0,2304.0,5169437.0,
978.0,1626.0,2247.0,2306.0,5169440.0,
979.0,1625.0,2245.0,2306.0,5169444.0,
979.0,1626.0,2243.0,2303.0,5169448.0,
978.0,1626.0,2242.0,2305.0,5169451.0,
979.0,1628.0,2242.0,2302.0,5169455.0,
978.0,1626.0,2239.0,2302.0,5169459.0,
978.0,1625.0,2239.0,2304.0,5169462.0,
978.0,1627.0,2237.0,2301.0,5169466.0,
979.0,1624.0,2236.0,2297.0,5169469.0,
973.0,1627.0,2234.0,2296.0,5169473.0,
980.0,1627.0,2235.0,2293.0,5169477.0,
981.0,1626.0,2234.0,2287.0,5169480.0,
978.0,1625.0,2231.0,2281.0,5169484.0,
979.0,1626.0,2229.0,2277.0,5169488.0,
981.0,1626.0,2221.0,2271.0,5169491.0,
978.0,1627.0,2221.0,2271.0,5169495.0,
979.0,1626.0,2217.0,2263.0,5169499.0,
979.0,1627.0,2215.0,2259.0,5169502.0,
978.0,1627.0,2213.0,2258.0,5169506.0,
979.0,1626.0,2207.0,2252.0,5169509.0,
979.0,1625.0,2210.0,2252.0,5169513.0,
978.0,1626.0,2207.0,2253.0,5169517.0,
978.0,1626.0,2205.0,2249.0,5169520.0,
978.0,1627.0,2201.0,2247.0,5169524.0,
978.0,1625.0,2201.0,2241.0,5169528.0,
979.0,1627.0,2199.0,2240.0,5169531.0,
979.0,1625.0,2196.0,2239.0,5169535.0,
979.0,1627.0,2193.0,2233.0,5169539.0,
980.0,1625.0,2190.0,2233.0,5169542.0,
978.0,1625.0,2192.0,2226.0,5169546.0,
978.0,1626.0,2191.0,2224.0,5169549.0,
978.0,1625.0,2188.0,2216.0,5169553.0,
978.0,1626.0,2183.0,2215.0,5169557.0,
978.0,1626.0,2184.0,2212.0,5169560.0,
977.0,1626.0,2178.0,2211.0,5169564.0,
978.0,1624.0,2179.0,2215.0,5169568.0,
978.0,1625.0,2176.0,2208.0,5169571.0,
982.0,1626.0,2175.0,2202.0,5169575.0,
979.0,1626.0,2170.0,2203.0,5169578.0,
978.0,1626.0,2169.0,2201.0,5169582.0,
978.0,1626.0,2169.0,2199.0,5169586.0,
978.0,1625.0,2167.0,2198.0,5169589.0,
976.0,1626.0,2166.0,2193.0,5169593.0,
978.0,1627.0,2168.0,2190.0,5169597.0,
978.0,1625.0,2162.0,2186.0,5169600.0,
977.0,1626.0,2160.0,2185.0,5169604.0,
977.0,1627.0,2163.0,2181.0,5169608.0,
978.0,1626.0,2160.0,2178.0,5169611.0,
977.0,1624.0,2160.0,2172.0,5169615.0,
974.0,1625.0,2160.0,2162.0,5169618.0,
977.0,1626.0,2156.0,2165.0,5169622.0,
977.0,1628.0,2158.0,2161.0,5169626.0,
977.0,1626.0,2159.0,2154.0,5169629.0,
976.0,1625.0,2161.0,2150.0,5169633.0,
977.0,1625.0,2161.0,2144.0,5169637.0,
978.0,1626.0,2163.0,2140.0,5169640.0,
977.0,1624.0,2161.0,2140.0,5169644.0,
978.0,1626.0,2162.0,2140.0,5169648.0,
978.0,1626.0,2163.0,2137.0,5169651.0,
978.0,1627.0,2163.0,2137.0,5169655.0,
977.0,1626.0,2165.0,2134.0,5169658.0,
977.0,1626.0,2166.0,2134.0,5169662.0,
976.0,1624.0,2167.0,2136.0,5169666.0,
976.0,1627.0,2168.0,2137.0,5169669.0,
977.0,1625.0,2170.0,2136.0,5169673.0,
978.0,1625.0,2166.0,2134.0,5169677.0,
976.0,1626.0,2165.0,2135.0,5169680.0,
977.0,1627.0,2163.0,2141.0,5169684.0,
975.0,1626.0,2159.0,2137.0,5169687.0,
977.0,1628.0,2162.0,2139.0,5169691.0,
977.0,1627.0,2163.0,2141.0,5169695.0,
976.0,1627.0,2160.0,2139.0,5169698.0,
978.0,1622.0,2160.0,2139.0,5169702.0,
978.0,1625.0,2160.0,2138.0,5169706.0,
977.0,1627.0,2158.0,2137.0,5169709.0,
976.0,1626.0,2158.0,2134.0,5169713.0,
977.0,1625.0,2157.0,2131.0,5169717.0,
976.0,1626.0,2154.0,2125.0,5169720.0,
976.0,1622.0,2156.0,2126.0,5169724.0,
976.0,1625.0,2155.0,2121.0,5169727.0,
976.0,1626.0,2154.0,2122.0,5169731.0,
974.0,1625.0,2149.0,2120.0,5169735.0,
977.0,1626.0,2152.0,2119.0,5169738.0,
976.0,1629.0,2152.0,2119.0,5169742.0,
977.0,1625.0,2151.0,2117.0,5169746.0,
976.0,1625.0,2151.0,2116.0,5169749.0,
977.0,1626.0,2152.0,2112.0,5169753.0,
977.0,1625.0,2147.0,2115.0,5169757.0,
976.0,1626.0,2147.0,2111.0,5169760.0,
976.0,1625.0,2142.0,2111.0,5169764.0,
975.0,1625.0,2142.0,2111.0,5169767.0,
974.0,1625.0,2138.0,2110.0,5169771.0,
974.0,1626.0,2139.0,2108.0,5169775.0,
974.0,1627.0,2139.0,2106.0,5169778.0,
976.0,1627.0,2138.0,2107.0,5169782.0,
975.0,1628.0,2133.0,2104.0,5169786.0,
975.0,1626.0,2132.0,2102.0,5169789.0,
976.0,1627.0,2131.0,2101.0,5169793.0,
972.0,1628.0,2129.0,2098.0,5169796.0,
975.0,1627.0,2128.0,2098.0,5169800.0,
976.0,1629.0,2127.0,2097.0,5169804.0,
976.0,1627.0,2124.0,2092.0,5169807.0,
975.0,1628.0,2122.0,2089.0,5169811.0,
975.0,1627.0,2122.0,2088.0,5169815.0,
976.0,1630.0,2120.0,2089.0,5169818.0,
974.0,1628.0,2125.0,2086.0,5169822.0,
977.0,1628.0,2121.0,2087.0,5169826.0,
975.0,1628.0,2124.0,2084.0,5169829.0,
975.0,1623.0,2120.0,2073.0,5169833.0,
974.0,1626.0,2120.0,2084.0,5169836.0,
975.0,1629.0,2118.0,2074.0,5169840.0,
976.0,1627.0,2117.0,2070.0,5169844.0,
975.0,1625.0,2116.0,2068.0,5169847.0,
975.0,1628.0,2115.0,2062.0,5169851.0,
974.0,1627.0,2113.0,2063.0,5169855.0,
975.0,1626.0,2114.0,2063.0,5169858.0,
975.0,1629.0,2113.0,2061.0,5169862.0,
972.0,1627.0,2112.0,2059.0,5169866.0,
974.0,1628.0,2110.0,2055.0,5169869.0,
975.0,1629.0,2110.0,2053.0,5169873.0,
974.0,1629.0,2109.0,2053.0,5169876.0,
975.0,1629.0,2114.0,2049.0,5169880.0,
975.0,1629.0,2107.0,2047.0,5169884.0,
974.0,1630.0,2107.0,2045.0,5169887.0,
974.0,1628.0,2107.0,2040.0,5169891.0,
975.0,1629.0,2110.0,2037.0,5169895.0,
974.0,1625.0,2105.0,2029.0,5169898.0,
974.0,1631.0,2102.0,2029.0,5169902.0,
974.0,1630.0,2102.0,2024.0,5169906.0,
974.0,1631.0,2099.0,2021.0,5169909.0,
974.0,1629.0,2098.0,2017.0,5169913.0,
974.0,1631.0,2098.0,2015.0,5169916.0,
975.0,1628.0,2095.0,2013.0,5169920.0,
974.0,1630.0,2092.0,2008.0,5169924.0,
974.0,1631.0,2092.0,2006.0,5169927.0,
975.0,1629.0,2091.0,2001.0,5169931.0,
976.0,1629.0,2089.0,2002.0,5169935.0,
974.0,1630.0,2088.0,2003.0,5169938.0,
975.0,1629.0,2088.0,2002.0,5169942.0,
974.0,1628.0,2084.0,2004.0,5169945.0,
975.0,1629.0,2084.0,2005.0,5169949.0,
973.0,1625.0,2080.0,2004.0,5169953.0,
975.0,1629.0,2080.0,2002.0,5169956.0,
974.0,1629.0,2081.0,1999.0,5169960.0,
974.0,1631.0,2077.0,2001.0,5169964.0,
974.0,1631.0,2078.0,1999.0,5169967.0,
975.0,1631.0,2075.0,2000.0,5169971.0,
974.0,1629.0,2073.0,1999.0,5169975.0,
974.0,1628.0,2068.0,2001.0,5169978.0,
980.0,1630.0,2073.0,2000.0,5169982.0,
973.0,1630.0,2072.0,2001.0,5169985.0,
972.0,1630.0,2069.0,1998.0,5169989.0,
974.0,1629.0,2069.0,1996.0,5169993.0,
973.0,1628.0,2069.0,1994.0,5169996.0,
973.0,1629.0,2068.0,1997.0,5170000.0,
973.0,1630.0,2068.0,1996.0,5170004.0,
973.0,1624.0,2068.0,1998.0,5170007.0,
974.0,1629.0,2066.0,1996.0,5170011.0,
973.0,1630.0,2069.0,1999.0,5170015.0,
974.0,1631.0,2067.0,2001.0,5170018.0,
973.0,1628.0,2069.0,2000.0,5170022.0,
974.0,1631.0,2067.0,2003.0,5170025.0,
972.0,1638.0,2069.0,2004.0,5170029.0,
973.0,1630.0,2068.0,2006.0,5170033.0,
974.0,1631.0,2067.0,2007.0,5170036.0,
972.0,1631.0,2065.0,2010.0,5170040.0,
972.0,1630.0,2064.0,2010.0,5170044.0,
973.0,1629.0,2064.0,2014.0,5170047.0,
973.0,1633.0,2063.0,2017.0,5170051.0,
971.0,1631.0,2063.0,2019.0,5170054.0,
973.0,1635.0,2063.0,2024.0,5170058.0,
972.0,1630.0,2058.0,2025.0,5170062.0,
967.0,1631.0,2057.0,2029.0,5170065.0,
973.0,1630.0,2057.0,2035.0,5170069.0,
974.0,1630.0,2055.0,2039.0,5170073.0,
971.0,1632.0,2052.0,2047.0,5170076.0,
971.0,1631.0,2053.0,2052.0,5170080.0,
973.0,1631.0,2050.0,2058.0,5170084.0,
973.0,1633.0,2048.0,2061.0,5170087.0,
973.0,1632.0,2047.0,2070.0,5170091.0,
974.0,1630.0,2042.0,2077.0,5170094.0,
972.0,1630.0,2045.0,2087.0,5170098.0,
972.0,1631.0,2046.0,2097.0,5170102.0,
972.0,1631.0,2054.0,2106.0,5170105.0,
978.0,1633.0,2049.0,2113.0,5170109.0,
969.0,1632.0,2051.0,2126.0,5170113.0,
972.0,1632.0,2053.0,2138.0,5170116.0,
972.0,1633.0,2054.0,2145.0,5170120.0,
973.0,1632.0,2055.0,2158.0,5170124.0,
965.0,1633.0,2057.0,2157.0,5170127.0,
973.0,1636.0,2062.0,2176.0,5170131.0,
973.0,1631.0,2065.0,2183.0,5170134.0,
973.0,1633.0,2068.0,2194.0,5170138.0,
972.0,1631.0,2075.0,2201.0,5170142.0,
972.0,1632.0,2078.0,2212.0,5170145.0,
973.0,1631.0,2084.0,2217.0,5170149.0,
974.0,1632.0,2089.0,2223.0,5170153.0,
972.0,1633.0,2094.0,2231.0,5170156.0,
972.0,1632.0,2101.0,2239.0,5170160.0,
973.0,1633.0,2110.0,2247.0,5170164.0,
972.0,1636.0,2115.0,2259.0,5170167.0,
972.0,1632.0,2120.0,2264.0,5170171.0,
972.0,1634.0,2127.0,2272.0,5170174.0,
972.0,1632.0,2135.0,2280.0,5170178.0,
972.0,1636.0,2140.0,2278.0,5170182.0,
972.0,1636.0,2148.0,2282.0,5170185.0,
972.0,1634.0,2154.0,2289.0,5170189.0,
972.0,1633.0,2163.0,2291.0,5170193.0,
971.0,1635.0,2171.0,2294.0,5170196.0,
973.0,1635.0,2176.0,2296.0,5170200.0,
971.0,1636.0,2181.0,2300.0,5170203.0,
971.0,1635.0,2183.0,2303.0,5170207.0,
978.0,1636.0,2188.0,2302.0,5170211.0,
971.0,1634.0,2194.0,2310.0,5170214.0,
971.0,1636.0,2198.0,2310.0,5170218.0,
972.0,1637.0,2205.0,2314.0,5170222.0,
972.0,1636.0,2209.0,2316.0,5170225.0,
973.0,1638.0,2213.0,2320.0,5170229.0,
970.0,1637.0,2216.0,2316.0,5170233.0,
972.0,1638.0,2220.0,2325.0,5170236.0,
971.0,1637.0,2227.0,2327.0,5170240.0,
972.0,1640.0,2230.0,2331.0,5170243.0,
973.0,1639.0,2233.0,2332.0,5170247.0,
970.0,1641.0,2236.0,2335.0,5170251.0,
971.0,1640.0,2237.0,2335.0,5170254.0,
972.0,1639.0,2238.0,2337.0,5170258.0,
973.0,1641.0,2240.0,2337.0,5170262.0,
972.0,1641.0,2240.0,2336.0,5170265.0,
972.0,1640.0,2238.0,2340.0,5170269.0,
971.0,1640.0,2238.0,2337.0,5170273.0,
971.0,1640.0,2237.0,2337.0,5170276.0,
971.0,1641.0,2240.0,2335.0,5170280.0,
972.0,1643.0,2236.0,2336.0,5170283.0,
971.0,1642.0,2237.0,2333.0,5170287.0,
972.0,1639.0,2238.0,2332.0,5170291.0,
973.0,1640.0,2239.0,2327.0,5170294.0,
972.0,1641.0,2240.0,2320.0,5170298.0,
971.0,1641.0,2239.0,2314.0,5170302.0,
971.0,1644.0,2241.0,2312.0,5170305.0,
971.0,1641.0,2241.0,2306.0,5170309.0,
974.0,1641.0,2239.0,2301.0,5170313.0,
971.0,1641.0,2237.0,2293.0,5170316.0,
972.0,1642.0,2239.0,2285.0,5170320.0,
972.0,1643.0,2235.0,2281.0,5170323.0,
971.0,1643.0,2234.0,2276.0,5170327.0,
971.0,1643.0,2232.0,2272.0,5170331.0,
970.0,1642.0,2230.0,2263.0,5170334.0,
968.0,1644.0,2228.0,2258.0,5170338.0,
971.0,1644.0,2227.0,2252.0,5170342.0,
975.0,1644.0,2227.0,2248.0,5170345.0,
971.0,1644.0,2224.0,2238.0,5170349.0,
970.0,1645.0,2223.0,2241.0,5170352.0,
971.0,1645.0,2220.0,2238.0,5170356.0,
971.0,1646.0,2220.0,2234.0,5170360.0,
971.0,1646.0,2218.0,2235.0,5170363.0,
971.0,1645.0,2216.0,2232.0,5170367.0,
970.0,1646.0,2214.0,2232.0,5170371.0,
970.0,1647.0,2212.0,2229.0,5170374.0,
970.0,1647.0,2211.0,2228.0,5170378.0,
970.0,1647.0,2200.0,2226.0,5170382.0,
971.0,1649.0,2204.0,2224.0,5170385.0,
975.0,1647.0,2202.0,2226.0,5170389.0,
970.0,1649.0,2201.0,2225.0,5170392.0,
969.0,1648.0,2197.0,2224.0,5170396.0,
971.0,1649.0,2196.0,2223.0,5170400.0,
970.0,1648.0,2193.0,2217.0,5170403.0,
970.0,1650.0,2192.0,2221.0,5170407.0,
970.0,1648.0,2191.0,2220.0,5170411.0,
969.0,1647.0,2191.0,2223.0,5170414.0,
969.0,1651.0,2189.0,2219.0,5170418.0,
970.0,1651.0,2190.0,2221.0,5170422.0,
970.0,1651.0,2189.0,2220.0,5170425.0,
969.0,1651.0,2188.0,2216.0,5170429.0,
965.0,1652.0,2188.0,2210.0,5170432.0,
968.0,1657.0,2188.0,2211.0,5170436.0,
970.0,1654.0,2189.0,2209.0,5170440.0,
970.0,1653.0,2188.0,2202.0,5170443.0,
971.0,1651.0,2187.0,2196.0,5170447.0,
970.0,1653.0,2185.0,2190.0,5170451.0,
973.0,1653.0,2185.0,2180.0,5170454.0,
968.0,1652.0,2184.0,2176.0,5170458.0,
970.0,1653.0,2181.0,2169.0,5170461.0,
969.0,1650.0,2179.0,2167.0,5170465.0,
969.0,1650.0,2178.0,2167.0,5170469.0,
969.0,1652.0,2177.0,2167.0,5170472.0,
970.0,1651.0,2176.0,2163.0,5170476.0,
968.0,1652.0,2174.0,2163.0,5170480.0,
967.0,1650.0,2172.0,2157.0,5170483.0,
969.0,1651.0,2172.0,2156.0,5170487.0,
969.0,1650.0,2171.0,2157.0,5170491.0,
969.0,1652.0,2172.0,2155.0,5170494.0,
970.0,1652.0,2169.0,2152.0,5170498.0,
970.0,1650.0,2173.0,2149.0,5170501.0,
970.0,1650.0,2166.0,2150.0,5170505.0,
969.0,1649.0,2164.0,2143.0,5170509.0,
968.0,1650.0,2164.0,2139.0,5170512.0,
969.0,1650.0,2158.0,2140.0,5170516.0,
963.0,1649.0,2159.0,2133.0,5170520.0,
969.0,1649.0,2157.0,2133.0,5170523.0,
968.0,1649.0,2155.0,2133.0,5170527.0,
969.0,1649.0,2150.0,2132.0,5170531.0,
968.0,1648.0,2148.0,2127.0,5170534.0,
969.0,1647.0,2143.0,2128.0,5170538.0,
968.0,1647.0,2143.0,2124.0,5170541.0,
969.0,1647.0,2137.0,2119.0,5170545.0,
970.0,1648.0,2139.0,2119.0,5170549.0,
969.0,1647.0,2136.0,2112.0,5170552.0,
969.0,1648.0,2134.0,2111.0,5170556.0,
968.0,1640.0,2131.0,2104.0,5170560.0,
968.0,1646.0,2128.0,2098.0,5170563.0,
967.0,1647.0,2127.0,2094.0,5170567.0,
968.0,1647.0,2122.0,2095.0,5170571.0,
968.0,1648.0,2123.0,2086.0,5170574.0,
969.0,1645.0,2119.0,2084.0,5170578.0,
967.0,1647.0,2116.0,2082.0,5170581.0,
969.0,1646.0,2116.0,2084.0,5170585.0,
967.0,1647.0,2114.0,2082.0,5170589.0,
968.0,1646.0,2112.0,2081.0,5170592.0,
968.0,1645.0,2109.0,2080.0,5170596.0,
968.0,1646.0,2108.0,2079.0,5170600.0,
969.0,1645.0,2103.0,2075.0,5170603.0,
968.0,1646.0,2103.0,2081.0,5170607.0,
973.0,1644.0,2100.0,2069.0,5170610.0,
968.0,1646.0,2096.0,2068.0,5170614.0,
967.0,1647.0,2094.0,2063.0,5170618.0,
968.0,1645.0,2092.0,2058.0,5170621.0,
968.0,1646.0,2090.0,2053.0,5170625.0,
968.0,1645.0,2084.0,2056.0,5170629.0,
967.0,1645.0,2082.0,2049.0,5170632.0,
968.0,1644.0,2079.0,2050.0,5170636.0,
968.0,1644.0,2077.0,2046.0,5170640.0,
968.0,1644.0,2073.0,2046.0,5170643.0,
966.0,1644.0,2069.0,2041.0,5170647.0,
967.0,1646.0,2067.0,2040.0,5170650.0,
968.0,1645.0,2064.0,2037.0,5170654.0,
967.0,1644.0,2062.0,2039.0,5170658.0,
967.0,1646.0,2062.0,2036.0,5170661.0,
966.0,1644.0,2061.0,2031.0,5170665.0,
970.0,1646.0,2059.0,2035.0,5170669.0,
967.0,1645.0,2056.0,2034.0,5170672.0,
966.0,1645.0,2055.0,2033.0,5170676.0,
967.0,1645.0,2053.0,2032.0,5170680.0,
967.0,1644.0,2052.0,2031.0,5170683.0,
966.0,1645.0,2049.0,2028.0,5170687.0,
966.0,1641.0,2047.0,2025.0,5170690.0,
966.0,1644.0,2045.0,2024.0,5170694.0,
967.0,1643.0,2043.0,2022.0,5170698.0,
967.0,1643.0,2042.0,2018.0,5170701.0,
967.0,1643.0,2040.0,2017.0,5170705.0,
966.0,1643.0,2041.0,2017.0,5170709.0,
966.0,1643.0,2039.0,2011.0,5170712.0,
967.0,1643.0,2036.0,2011.0,5170716.0,
965.0,1643.0,2033.0,2005.0,5170719.0,
966.0,1643.0,2037.0,2004.0,5170723.0,
966.0,1642.0,2032.0,2001.0,5170727.0,
965.0,1642.0,2032.0,2000.0,5170730.0,
966.0,1642.0,2032.0,1995.0,5170734.0,
966.0,1643.0,2030.0,1993.0,5170738.0,
966.0,1642.0,2028.0,1986.0,5170741.0,
971.0,1642.0,2027.0,1987.0,5170745.0,
966.0,1641.0,2026.0,1983.0,5170749.0,
965.0,1641.0,2027.0,1983.0,5170752.0,
966.0,1642.0,2024.0,1980.0,5170756.0,
966.0,1643.0,2027.0,1977.0,5170759.0,
965.0,1640.0,2024.0,1976.0,5170763.0,
965.0,1642.0,2025.0,1974.0,5170767.0,
965.0,1648.0,2025.0,1970.0,5170770.0,
963.0,1640.0,2024.0,1971.0,5170774.0,
965.0,1642.0,2022.0,1969.0,5170778.0,
966.0,1641.0,2024.0,1967.0,5170781.0,
966.0,1641.0,2023.0,1967.0,5170785.0,
966.0,1640.0,2024.0,1968.0,5170789.0,
966.0,1641.0,2022.0,1971.0,5170792.0,
965.0,1640.0,2023.0,1973.0,5170796.0,
964.0,1639.0,2020.0,1963.0,5170799.0,
966.0,1638.0,2018.0,1969.0,5170803.0,
965.0,1641.0,2016.0,1974.0,5170807.0,
965.0,1641.0,2016.0,1976.0,5170810.0,
960.0,1641.0,2012.0,1976.0,5170814.0,
965.0,1643.0,2011.0,1974.0,5170818.0,
965.0,1641.0,2009.0,1973.0,5170821.0,
965.0,1641.0,2008.0,1975.0,5170825.0,
964.0,1639.0,2005.0,1979.0,5170829.0,
965.0,1640.0,2004.0,1983.0,5170832.0,
966.0,1640.0,2005.0,1990.0,5170836.0,
965.0,1640.0,2000.0,1994.0,5170839.0,
964.0,1639.0,2001.0,2001.0,5170843.0,
965.0,1641.0,1998.0,2007.0,5170847.0,
965.0,1640.0,1995.0,2008.0,5170850.0,
967.0,1643.0,1995.0,2016.0,5170854.0,
964.0,1640.0,1989.0,2020.0,5170858.0,
965.0,1641.0,1989.0,2024.0,5170861.0,
964.0,1640.0,1988.0,2027.0,5170865.0,
965.0,1641.0,1987.0,2031.0,5170868.0,
964.0,1640.0,1987.0,2033.0,5170872.0,
971.0,1641.0,1985.0,2037.0,5170876.0,
964.0,1640.0,1985.0,2039.0,5170879.0,
965.0,1642.0,1984.0,2041.0,5170883.0,
963.0,1640.0,1985.0,2041.0,5170887.0,
964.0,1640.0,1983.0,2044.0,5170890.0,
963.0,1641.0,1984.0,2047.0,5170894.0,
964.0,1641.0,1985.0,2050.0,5170898.0,
963.0,1639.0,1984.0,2053.0,5170901.0,
965.0,1639.0,1985.0,2050.0,5170905.0,
965.0,1641.0,1983.0,2063.0,5170908.0,
963.0,1643.0,1986.0,2064.0,5170912.0,
963.0,1640.0,1986.0,2073.0,5170916.0,
964.0,1641.0,1983.0,2076.0,5170919.0,
964.0,1645.0,1992.0,2082.0,5170923.0,
963.0,1641.0,1996.0,2082.0,5170927.0,
963.0,1642.0,1998.0,2088.0,5170930.0,
964.0,1640.0,2003.0,2095.0,5170934.0,
963.0,1640.0,2008.0,2100.0,5170938.0,
963.0,1641.0,2008.0,2106.0,5170941.0,
964.0,1638.0,2018.0,2115.0,5170945.0,
964.0,1638.0,2021.0,2120.0,5170948.0,
962.0,1641.0,2026.0,2127.0,5170952.0,
964.0,1642.0,2031.0,2136.0,5170956.0,
967.0,1640.0,2035.0,2143.0,5170959.0,
964.0,1639.0,2042.0,2147.0,5170963.0,
963.0,1639.0,2049.0,2158.0,5170967.0,
963.0,1641.0,2057.0,2164.0,5170970.0,
963.0,1639.0,2063.0,2175.0,5170974.0,
965.0,1638.0,2067.0,2184.0,5170977.0,
962.0,1639.0,2074.0,2190.0,5170981.0,
963.0,1640.0,2081.0,2201.0,5170985.0,
963.0,1640.0,2087.0,2207.0,5170988.0,
963.0,1637.0,2094.0,2218.0,5170992.0,
963.0,1639.0,2101.0,2227.0,5170996.0,
964.0,1640.0,2109.0,2234.0,5170999.0,
963.0,1638.0,2115.0,2237.0,5171003.0,
962.0,1639.0,2122.0,2248.0,5171007.0,
963.0,1640.0,2128.0,2251.0,5171010.0,
963.0,1638.0,2135.0,2255.0,5171014.0,
962.0,1639.0,2139.0,2257.0,5171017.0,
963.0,1639.0,2148.0,2264.0,5171021.0,
962.0,1641.0,2152.0,2268.0,5171025.0,
961.0,1644.0,2156.0,2271.0,5171028.0,
963.0,1640.0,2162.0,2276.0,5171032.0,
962.0,1639.0,2165.0,2282.0,5171036.0,
962.0,1640.0,2170.0,2286.0,5171039.0,
962.0,1638.0,2171.0,2290.0,5171043.0,
962.0,1640.0,2177.0,2294.0,5171047.0,
962.0,1641.0,2182.0,2295.0,5171050.0,
963.0,1640.0,2185.0,2298.0,5171054.0,
962.0,1640.0,2188.0,2300.0,5171057.0,
962.0,1640.0,2190.0,2303.0,5171061.0,
962.0,1639.0,2191.0,2302.0,5171065.0,
960.0,1639.0,2194.0,2302.0,5171068.0,
962.0,1639.0,2195.0,2304.0,5171072.0,
962.0,1634.0,2196.0,2308.0,5171076.0,
961.0,1644.0,2195.0,2308.0,5171079.0,
960.0,1638.0,2203.0,2307.0,5171083.0,
962.0,1640.0,2199.0,2308.0,5171087.0,
961.0,1640.0,2200.0,2305.0,5171090.0,
961.0,1640.0,2198.0,2307.0,5171094.0,
960.0,1639.0,2197.0,2306.0,5171097.0,
961.0,1638.0,2196.0,2303.0,5171101.0,
959.0,1639.0,2196.0,2304.0,5171105.0,
959.0,1641.0,2196.0,2303.0,5171108.0,
959.0,1640.0,2194.0,2297.0,5171112.0,
961.0,1641.0,2190.0,2299.0,5171116.0,
961.0,1640.0,2189.0,2295.0,5171119.0,
958.0,1641.0,2188.0,2290.0,5171123.0,
961.0,1644.0,2188.0,2280.0,5171126.0,
961.0,1642.0,2187.0,2277.0,5171130.0,
960.0,1642.0,2186.0,2271.0,5171134.0,
961.0,1641.0,2186.0,2266.0,5171137.0,
960.0,1640.0,2186.0,2259.0,5171141.0,
961.0,1643.0,2186.0,2255.0,5171145.0,
960.0,1642.0,2185.0,2251.0,5171148.0,
960.0,1641.0,2184.0,2243.0,5171152.0,
960.0,1643.0,2182.0,2239.0,5171156.0,
960.0,1644.0,2180.0,2231.0,5171159.0,
959.0,1644.0,2178.0,2224.0,5171163.0,
958.0,1643.0,2174.0,2222.0,5171166.0,
960.0,1646.0,2173.0,2216.0,5171170.0,
960.0,1644.0,2171.0,2213.0,5171174.0,
967.0,1645.0,2167.0,2212.0,5171177.0,
960.0,1645.0,2163.0,2206.0,5171181.0,
959.0,1645.0,2156.0,2205.0,5171185.0,
958.0,1644.0,2154.0,2201.0,5171188.0,
960.0,1645.0,2148.0,2200.0,5171192.0,
960.0,1644.0,2142.0,2195.0,5171196.0,
958.0,1646.0,2141.0,2192.0,5171199.0,
960.0,1643.0,2136.0,2188.0,5171203.0,
959.0,1646.0,2131.0,2186.0,5171206.0,
959.0,1645.0,2126.0,2180.0,5171210.0,
960.0,1646.0,2124.0,2180.0,5171214.0,
958.0,1646.0,2123.0,2173.0,5171217.0,
959.0,1647.0,2122.0,2176.0,5171221.0,
958.0,1646.0,2119.0,2169.0,5171225.0,
958.0,1647.0,2116.0,2166.0,5171228.0,
959.0,1646.0,2115.0,2172.0,5171232.0,
959.0,1646.0,2111.0,2162.0,5171235.0,
959.0,1647.0,2112.0,2159.0,5171239.0,
958.0,1647.0,2113.0,2155.0,5171243.0,
959.0,1648.0,2111.0,2155.0,5171246.0,
958.0,1646.0,2108.0,2154.0,5171250.0,
957.0,1647.0,2110.0,2145.0,5171254.0,
957.0,1647.0,2109.0,2142.0,5171257.0,
958.0,1647.0,2107.0,2139.0,5171261.0,
957.0,1647.0,2111.0,2128.0,5171265.0,
958.0,1647.0,2110.0,2132.0,5171268.0,
956.0,1647.0,2110.0,2126.0,5171272.0,
964.0,1647.0,2112.0,2122.0,5171275.0,
959.0,1646.0,2113.0,2120.0,5171279.0,
961.0,1646.0,2110.0,2114.0,5171283.0,
957.0,1645.0,2111.0,2112.0,5171286.0,
956.0,1648.0,2112.0,2111.0,5171290.0,
957.0,1646.0,2112.0,2106.0,5171294.0,
957.0,1648.0,2113.0,2105.0,5171297.0,
957.0,1646.0,2114.0,2103.0,5171301.0,
962.0,1647.0,2118.0,2101.0,5171305.0,
956.0,1647.0,2117.0,2098.0,5171308.0,
957.0,1647.0,2119.0,2094.0,5171312.0,
957.0,1647.0,2121.0,2092.0,5171315.0,
957.0,1647.0,2122.0,2093.0,5171319.0,
957.0,1648.0,2120.0,2092.0,5171323.0,
955.0,1649.0,2122.0,2089.0,5171326.0,
956.0,1643.0,2119.0,2091.0,5171330.0,
962.0,1647.0,2120.0,2091.0,5171334.0,
957.0,1647.0,2119.0,2093.0,5171337.0,
955.0,1649.0,2121.0,2093.0,5171341.0,
956.0,1646.0,2119.0,2093.0,5171345.0,
956.0,1648.0,2119.0,2092.0,5171348.0,
956.0,1646.0,2118.0,2094.0,5171352.0,
956.0,1646.0,2118.0,2090.0,5171355.0,
955.0,1648.0,2118.0,2094.0,5171359.0,
955.0,1647.0,2115.0,2090.0,5171363.0,
956.0,1649.0,2113.0,2093.0,5171366.0,
955.0,1652.0,2109.0,2088.0,5171370.0,
952.0,1647.0,2107.0,2088.0,5171374.0,
955.0,1647.0,2109.0,2085.0,5171377.0,
956.0,1649.0,2104.0,2088.0,5171381.0,
955.0,1651.0,2103.0,2081.0,5171384.0,
955.0,1647.0,2100.0,2077.0,5171388.0,
954.0,1648.0,2097.0,2074.0,5171392.0,
955.0,1648.0,2100.0,2068.0,5171395.0,
954.0,1647.0,2096.0,2069.0,5171399.0,
955.0,1648.0,2098.0,2066.0,5171403.0,
954.0,1648.0,2095.0,2064.0,5171406.0,
954.0,1648.0,2096.0,2061.0,5171410.0,
955.0,1648.0,2094.0,2060.0,5171414.0,
954.0,1647.0,2096.0,2052.0,5171417.0,
955.0,1648.0,2094.0,2055.0,5171421.0,
955.0,1645.0,2095.0,2053.0,5171424.0,
954.0,1648.0,2095.0,2050.0,5171428.0,
953.0,1649.0,2094.0,2047.0,5171432.0,
953.0,1649.0,2095.0,2044.0,5171435.0,
953.0,1649.0,2092.0,2043.0,5171439.0,
954.0,1649.0,2096.0,2039.0,5171443.0,
955.0,1649.0,2093.0,2039.0,5171446.0,
954.0,1648.0,2093.0,2034.0,5171450.0,
954.0,1649.0,2089.0,2036.0,5171454.0,
955.0,1650.0,2089.0,2032.0,5171457.0,
954.0,1649.0,2090.0,2031.0,5171461.0,
953.0,1650.0,2087.0,2026.0,5171464.0,
952.0,1650.0,2086.0,2026.0,5171468.0,
953.0,1650.0,2086.0,2025.0,5171472.0,
954.0,1651.0,2085.0,2027.0,5171475.0,
952.0,1647.0,2082.0,2028.0,5171479.0,
953.0,1645.0,2081.0,2027.0,5171483.0,
954.0,1651.0,2082.0,2026.0,5171486.0,
951.0,1650.0,2074.0,2028.0,5171490.0,
953.0,1655.0,2076.0,2024.0,5171493.0,
953.0,1651.0,2074.0,2022.0,5171497.0,
953.0,1653.0,2072.0,2021.0,5171501.0,
951.0,1651.0,2071.0,2020.0,5171504.0,
951.0,1651.0,2069.0,2018.0,5171508.0,
952.0,1651.0,2062.0,2016.0,5171512.0,
953.0,1651.0,2060.0,2016.0,5171515.0,
952.0,1650.0,2058.0,2018.0,5171519.0,
953.0,1651.0,2053.0,2014.0,5171523.0,
948.0,1650.0,2052.0,2010.0,5171526.0,
953.0,1651.0,2047.0,2012.0,5171530.0,
952.0,1652.0,2045.0,2010.0,5171533.0,
951.0,1651.0,2043.0,2008.0,5171537.0,
952.0,1649.0,2040.0,2008.0,5171541.0,
947.0,1649.0,2038.0,2003.0,5171544.0,
951.0,1649.0,2037.0,2003.0,5171548.0,
951.0,1650.0,2034.0,1998.0,5171552.0,
951.0,1650.0,2032.0,1996.0,5171555.0,
952.0,1649.0,2036.0,1994.0,5171559.0,
951.0,1649.0,2036.0,1990.0,5171563.0,
950.0,1649.0,2038.0,1989.0,5171566.0,
951.0,1650.0,2038.0,1989.0,5171570.0,
952.0,1648.0,2041.0,1989.0,5171573.0,
950.0,1649.0,2041.0,1989.0,5171577.0,
950.0,1649.0,2043.0,1988.0,5171581.0,
950.0,1650.0,2047.0,1988.0,5171584.0,
957.0,1650.0,2047.0,1985.0,5171588.0,
951.0,1649.0,2052.0,1986.0,5171592.0,
950.0,1647.0,2053.0,1981.0,5171595.0,
950.0,1647.0,2052.0,1982.0,5171599.0,
950.0,1654.0,2053.0,1980.0,5171602.0,
951.0,1647.0,2058.0,1980.0,5171606.0,
949.0,1651.0,2058.0,1981.0,5171610.0,
947.0,1650.0,2059.0,1969.0,5171613.0,
950.0,1649.0,2061.0,1979.0,5171617.0,
949.0,1648.0,2059.0,1974.0,5171621.0,
949.0,1650.0,2055.0,1972.0,5171624.0,
949.0,1648.0,2054.0,1969.0,5171628.0,
950.0,1649.0,2054.0,1970.0,5171632.0,
949.0,1649.0,2052.0,1967.0,5171635.0,
949.0,1649.0,2051.0,1964.0,5171639.0,
949.0,1650.0,2051.0,1965.0,5171642.0,
949.0,1649.0,2048.0,1963.0,5171646.0,
947.0,1649.0,2047.0,1968.0,5171650.0,
948.0,1648.0,2046.0,1970.0,5171653.0,
949.0,1649.0,2043.0,1975.0,5171657.0,
948.0,1650.0,2044.0,1977.0,5171661.0,
949.0,1650.0,2042.0,1977.0,5171664.0,
948.0,1650.0,2042.0,1979.0,5171668.0,
949.0,1651.0,2042.0,1984.0,5171672.0,
949.0,1650.0,2044.0,1985.0,5171675.0,
947.0,1647.0,2039.0,1986.0,5171679.0,
948.0,1651.0,2035.0,1989.0,5171682.0,
948.0,1650.0,2035.0,1995.0,5171686.0,
948.0,1649.0,2030.0,1997.0,5171690.0,
947.0,1650.0,2028.0,1999.0,5171693.0,
947.0,1650.0,2029.0,1999.0,5171697.0,
947.0,1649.0,2028.0,2001.0,5171701.0,
948.0,1650.0,2028.0,2001.0,5171704.0,
949.0,1647.0,2029.0,2001.0,5171708.0,
948.0,1649.0,2027.0,2004.0,5171711.0,
953.0,1650.0,2025.0,2010.0,5171715.0,
947.0,1648.0,2026.0,2013.0,5171719.0,
948.0,1650.0,2025.0,2018.0,5171722.0,
944.0,1648.0,2021.0,2019.0,5171726.0,
947.0,1649.0,2022.0,2025.0,5171730.0,
947.0,1648.0,2024.0,2031.0,5171733.0,
947.0,1647.0,2024.0,2037.0,5171737.0,
948.0,1647.0,2022.0,2042.0,5171741.0,
947.0,1647.0,2026.0,2051.0,5171744.0,
949.0,1648.0,2024.0,2057.0,5171748.0,
947.0,1649.0,2022.0,2064.0,5171751.0,
948.0,1647.0,2025.0,2072.0,5171755.0,
948.0,1646.0,2029.0,2077.0,5171759.0,
947.0,1647.0,2030.0,2084.0,5171762.0,
947.0,1646.0,2035.0,2086.0,5171766.0,
947.0,1645.0,2038.0,2094.0,5171770.0,
948.0,1645.0,2044.0,2099.0,5171773.0,
946.0,1646.0,2047.0,2103.0,5171777.0,
948.0,1646.0,2054.0,2104.0,5171781.0,
947.0,1648.0,2058.0,2109.0,5171784.0,
946.0,1646.0,2062.0,2112.0,5171788.0,
948.0,1646.0,2070.0,2115.0,5171791.0,
947.0,1645.0,2073.0,2117.0,5171795.0,
949.0,1647.0,2072.0,2121.0,5171799.0,
947.0,1645.0,2085.0,2125.0,5171802.0,
946.0,1647.0,2089.0,2128.0,5171806.0,
946.0,1646.0,2093.0,2133.0,5171810.0,
947.0,1645.0,2098.0,2137.0,5171813.0,
946.0,1644.0,2102.0,2145.0,5171817.0,
947.0,1644.0,2108.0,2145.0,5171821.0,
945.0,1648.0,2113.0,2156.0,5171824.0,
946.0,1644.0,2119.0,2161.0,5171828.0,
948.0,1646.0,2122.0,2166.0,5171831.0,
945.0,1649.0,2125.0,2169.0,5171835.0,
945.0,1644.0,2130.0,2171.0,5171839.0,
945.0,1645.0,2137.0,2174.0,5171842.0,
946.0,1640.0,2139.0,2174.0,5171846.0,
946.0,1645.0,2143.0,2177.0,5171850.0,
945.0,1644.0,2145.0,2176.0,5171853.0,
944.0,1643.0,2150.0,2178.0,5171857.0,
946.0,1642.0,2152.0,2181.0,5171860.0,
944.0,1644.0,2155.0,2179.0,5171864.0,
945.0,1643.0,2157.0,2183.0,5171868.0,
940.0,1643.0,2158.0,2183.0,5171871.0,
946.0,1643.0,2164.0,2183.0,5171875.0,
945.0,1641.0,2157.0,2182.0,5171879.0,
945.0,1641.0,2157.0,2185.0,5171882.0,
946.0,1641.0,2155.0,2186.0,5171886.0,
944.0,1642.0,2158.0,2185.0,5171890.0,
944.0,1641.0,2149.0,2186.0,5171893.0,
945.0,1640.0,2150.0,2177.0,5171897.0,
943.0,1643.0,2148.0,2184.0,5171900.0,
944.0,1643.0,2148.0,2181.0,5171904.0,
944.0,1642.0,2149.0,2181.0,5171908.0,
944.0,1642.0,2145.0,2176.0,5171911.0,
945.0,1642.0,2143.0,2176.0,5171915.0,
944.0,1640.0,2143.0,2173.0,5171919.0,
944.0,1641.0,2140.0,2163.0,5171922.0,
944.0,1642.0,2146.0,2164.0,5171926.0,
944.0,1640.0,2139.0,2156.0,5171930.0,
944.0,1640.0,2136.0,2159.0,5171933.0,
942.0,1640.0,2136.0,2156.0,5171937.0,
943.0,1641.0,2135.0,2153.0,5171940.0,
943.0,1637.0,2130.0,2148.0,5171944.0,
944.0,1640.0,2130.0,2143.0,5171948.0,
943.0,1639.0,2128.0,2143.0,5171951.0,
944.0,1641.0,2126.0,2138.0,5171955.0,
943.0,1640.0,2125.0,2138.0,5171959.0,
943.0,1642.0,2126.0,2130.0,5171962.0,
943.0,1639.0,2122.0,2129.0,5171966.0,
943.0,1642.0,2123.0,2125.0,5171969.0,
943.0,1638.0,2122.0,2120.0,5171973.0,
943.0,1641.0,2120.0,2119.0,5171977.0,
940.0,1639.0,2118.0,2115.0,5171980.0,
943.0,1640.0,2115.0,2111.0,5171984.0,
942.0,1639.0,2112.0,2106.0,5171988.0,
942.0,1640.0,2112.0,2104.0,5171991.0,
943.0,1638.0,2108.0,2095.0,5171995.0,
942.0,1637.0,2106.0,2086.0,5171999.0,
942.0,1639.0,2105.0,2087.0,5172002.0,
944.0,1637.0,2105.0,2086.0,5172006.0,
940.0,1639.0,2103.0,2081.0,5172009.0,
942.0,1643.0,2103.0,2077.0,5172013.0,
942.0,1639.0,2103.0,2076.0,5172017.0,
942.0,1638.0,2100.0,2073.0,5172020.0,
942.0,1638.0,2104.0,2067.0,5172024.0,
942.0,1638.0,2103.0,2067.0,5172028.0,
942.0,1636.0,2103.0,2063.0,5172031.0,
941.0,1637.0,2098.0,2063.0,5172035.0,
942.0,1639.0,2098.0,2065.0,5172039.0,
943.0,1638.0,2098.0,2056.0,5172042.0,
941.0,1637.0,2094.0,2057.0,5172046.0,
942.0,1638.0,2095.0,2056.0,5172049.0,
943.0,1637.0,2087.0,2051.0,5172053.0,
941.0,1635.0,2085.0,2050.0,5172057.0,
941.0,1640.0,2081.0,2052.0,5172060.0,
942.0,1635.0,2080.0,2051.0,5172064.0,
940.0,1637.0,2077.0,2053.0,5172068.0,
941.0,1636.0,2075.0,2051.0,5172071.0,
941.0,1636.0,2075.0,2052.0,5172075.0,
942.0,1632.0,2071.0,2052.0,5172079.0,
938.0,1636.0,2070.0,2052.0,5172082.0,
940.0,1637.0,2068.0,2050.0,5172086.0,
941.0,1636.0,2067.0,2052.0,5172089.0,
940.0,1637.0,2065.0,2050.0,5172093.0,
941.0,1635.0,2063.0,2050.0,5172097.0,
940.0,1636.0,2060.0,2045.0,5172100.0,
941.0,1639.0,2061.0,2044.0,5172104.0,
941.0,1637.0,2062.0,2040.0,5172108.0,
941.0,1634.0,2059.0,2040.0,5172111.0,
941.0,1635.0,2058.0,2037.0,5172115.0,
941.0,1635.0,2058.0,2033.0,5172118.0,
941.0,1635.0,2055.0,2032.0,5172122.0,
941.0,1637.0,2052.0,2028.0,5172126.0,
940.0,1636.0,2045.0,2027.0,5172129.0,
940.0,1635.0,2048.0,2024.0,5172133.0,
940.0,1638.0,2047.0,2023.0,5172137.0,
941.0,1637.0,2043.0,2018.0,5172140.0,
940.0,1633.0,2043.0,2019.0,5172144.0,
944.0,1635.0,2041.0,2019.0,5172148.0,
940.0,1636.0,2039.0,2017.0,5172151.0,
941.0,1633.0,2037.0,2020.0,5172155.0,
940.0,1639.0,2035.0,2021.0,5172158.0,
940.0,1635.0,2036.0,2020.0,5172162.0,
940.0,1634.0,2032.0,2020.0,5172166.0,
939.0,1633.0,2032.0,2018.0,5172169.0,
940.0,1633.0,2030.0,2014.0,5172173.0,
940.0,1634.0,2030.0,2014.0,5172177.0,
941.0,1633.0,2023.0,2011.0,5172180.0,
940.0,1634.0,2025.0,2007.0,5172184.0,
940.0,1634.0,2022.0,2007.0,5172188.0,
938.0,1633.0,2021.0,2006.0,5172191.0,
938.0,1636.0,2019.0,2005.0,5172195.0,
938.0,1634.0,2019.0,2007.0,5172198.0,
939.0,1633.0,2015.0,2006.0,5172202.0,
941.0,1632.0,2012.0,2006.0,5172206.0,
940.0,1634.0,2011.0,2004.0,5172209.0,
937.0,1633.0,2010.0,2003.0,5172213.0,
939.0,1634.0,2010.0,2000.0,5172217.0,
939.0,1633.0,2007.0,2000.0,5172220.0,
939.0,1634.0,2007.0,1999.0,5172224.0,
939.0,1631.0,2006.0,1999.0,5172227.0,
938.0,1634.0,2006.0,2003.0,5172231.0,
938.0,1632.0,2006.0,1998.0,5172235.0,
938.0,1637.0,2005.0,1999.0,5172238.0,
938.0,1633.0,2007.0,1996.0,5172242.0,
938.0,1633.0,2007.0,1991.0,5172246.0,
938.0,1634.0,2008.0,1991.0,5172249.0,
938.0,1633.0,2008.0,1988.0,5172253.0,
937.0,1632.0,2009.0,1990.0,5172257.0,
938.0,1631.0,2008.0,1989.0,5172260.0,
938.0,1632.0,2009.0,1989.0,5172264.0,
936.0,1630.0,2011.0,1988.0,5172267.0,
937.0,1632.0,2008.0,1989.0,5172271.0,
938.0,1632.0,2007.0,1992.0,5172275.0,
938.0,1631.0,2010.0,1990.0,5172278.0,
937.0,1630.0,2007.0,1989.0,5172282.0,
931.0,1632.0,2004.0,1989.0,5172286.0,
937.0,1632.0,2006.0,1988.0,5172289.0,
937.0,1635.0,2003.0,1986.0,5172293.0,
937.0,1629.0,2003.0,1981.0,5172297.0,
937.0,1631.0,2004.0,1979.0,5172300.0,
931.0,1632.0,2003.0,1979.0,5172304.0,
936.0,1632.0,2001.0,1975.0,5172307.0,
938.0,1632.0,2002.0,1969.0,5172311.0,
943.0,1632.0,2002.0,1968.0,5172315.0,
937.0,1631.0,2000.0,1965.0,5172318.0,
937.0,1632.0,1998.0,1960.0,5172322.0,
936.0,1632.0,1998.0,1958.0,5172326.0,
937.0,1633.0,1998.0,1955.0,5172329.0,
936.0,1632.0,1995.0,1950.0,5172333.0,
937.0,1631.0,1993.0,1948.0,5172336.0,
933.0,1632.0,1994.0,1944.0,5172340.0,
936.0,1628.0,1992.0,1940.0,5172344.0,
936.0,1631.0,1992.0,1939.0,5172347.0,
935.0,1634.0,1992.0,1937.0,5172351.0,
936.0,1632.0,1991.0,1934.0,5172355.0,
936.0,1632.0,1991.0,1933.0,5172358.0,
936.0,1632.0,1994.0,1926.0,5172362.0,
936.0,1632.0,1994.0,1922.0,5172366.0,
935.0,1628.0,1993.0,1919.0,5172369.0,
935.0,1631.0,1995.0,1918.0,5172373.0,
935.0,1631.0,1997.0,1916.0,5172376.0,
935.0,1631.0,1997.0,1918.0,5172380.0,
935.0,1631.0,1997.0,1915.0,5172384.0,
934.0,1631.0,1998.0,1922.0,5172387.0,
936.0,1631.0,2000.0,1918.0,5172391.0,
931.0,1632.0,1999.0,1922.0,5172395.0,
941.0,1631.0,2002.0,1923.0,5172398.0,
934.0,1631.0,2003.0,1922.0,5172402.0,
935.0,1630.0,2001.0,1922.0,5172406.0,
935.0,1631.0,2002.0,1922.0,5172409.0,
935.0,1630.0,2002.0,1923.0,5172413.0,
935.0,1631.0,2003.0,1924.0,5172416.0,
933.0,1630.0,2002.0,1926.0,5172420.0,
934.0,1631.0,2001.0,1928.0,5172424.0,
934.0,1631.0,2001.0,1928.0,5172427.0,
934.0,1629.0,1999.0,1928.0,5172431.0,
934.0,1631.0,2000.0,1930.0,5172435.0,
935.0,1629.0,1997.0,1932.0,5172438.0,
933.0,1629.0,1997.0,1935.0,5172442.0,
935.0,1631.0,1996.0,1937.0,5172445.0,
934.0,1630.0,1996.0,1940.0,5172449.0,
934.0,1631.0,1997.0,1941.0,5172453.0,
932.0,1630.0,1997.0,1943.0,5172456.0,
933.0,1631.0,1995.0,1947.0,5172460.0,
932.0,1630.0,1992.0,1947.0,5172464.0,
934.0,1631.0,1989.0,1945.0,5172467.0,
936.0,1630.0,1992.0,1945.0,5172471.0,
934.0,1632.0,1992.0,1944.0,5172475.0,
934.0,1629.0,1989.0,1943.0,5172478.0,
935.0,1632.0,1987.0,1943.0,5172482.0,
934.0,1629.0,1986.0,1944.0,5172485.0,
933.0,1629.0,1984.0,1946.0,5172489.0,
933.0,1632.0,1988.0,1949.0,5172493.0,
932.0,1630.0,1984.0,1951.0,5172496.0,
933.0,1631.0,1982.0,1945.0,5172500.0,
932.0,1632.0,1986.0,1954.0,5172504.0,
933.0,1630.0,1985.0,1961.0,5172507.0,
933.0,1631.0,1990.0,1961.0,5172511.0,
932.0,1631.0,1987.0,1966.0,5172515.0,
933.0,1632.0,1985.0,1969.0,5172518.0,
934.0,1628.0,1990.0,1972.0,5172522.0,
932.0,1630.0,1992.0,1976.0,5172525.0,
933.0,1630.0,1995.0,1982.0,5172529.0,
932.0,1631.0,1999.0,1985.0,5172533.0,
933.0,1631.0,2002.0,1991.0,5172536.0,
932.0,1631.0,2005.0,1995.0,5172540.0,
932.0,1630.0,2008.0,2001.0,5172544.0,
932.0,1630.0,2012.0,2008.0,5172547.0,
931.0,1631.0,2016.0,2014.0,5172551.0,
932.0,1629.0,2017.0,2018.0,5172555.0,
932.0,1630.0,2021.0,2023.0,5172558.0,
932.0,1631.0,2027.0,2025.0,5172562.0,
932.0,1634.0,2030.0,2032.0,5172565.0,
932.0,1630.0,2033.0,2034.0,5172569.0,
929.0,1631.0,2039.0,2035.0,5172573.0,
932.0,1629.0,2042.0,2036.0,5172576.0,
934.0,1631.0,2047.0,2041.0,5172580.0,
930.0,1630.0,2053.0,2043.0,5172584.0,
929.0,1630.0,2060.0,2044.0,5172587.0,
931.0,1630.0,2064.0,2048.0,5172591.0,
932.0,1630.0,2072.0,2050.0,5172594.0,
932.0,1629.0,2078.0,2055.0,5172598.0,
931.0,1627.0,2082.0,2057.0,5172602.0,
931.0,1629.0,2089.0,2063.0,5172605.0,
931.0,1631.0,2091.0,2067.0,5172609.0,
931.0,1631.0,2100.0,2071.0,5172613.0,
930.0,1631.0,2102.0,2075.0,5172616.0,
931.0,1631.0,2107.0,2082.0,5172620.0,
931.0,1631.0,2112.0,2082.0,5172624.0,
928.0,1630.0,2119.0,2086.0,5172627.0,
931.0,1630.0,2121.0,2092.0,5172631.0,
931.0,1632.0,2125.0,2097.0,5172634.0,
932.0,1631.0,2125.0,2098.0,5172638.0,
933.0,1630.0,2130.0,2104.0,5172642.0,
930.0,1630.0,2131.0,2106.0,5172645.0,
932.0,1631.0,2133.0,2111.0,5172649.0,
932.0,1629.0,2135.0,2114.0,5172653.0,
931.0,1630.0,2132.0,2119.0,5172656.0,
930.0,1630.0,2137.0,2122.0,5172660.0,
931.0,1629.0,2138.0,2123.0,5172664.0,
931.0,1630.0,2139.0,2130.0,5172667.0,
930.0,1629.0,2142.0,2132.0,5172671.0,
931.0,1630.0,2144.0,2133.0,5172674.0,
930.0,1628.0,2142.0,2132.0,5172678.0,
929.0,1628.0,2144.0,2135.0,5172682.0,
930.0,1629.0,2146.0,2134.0,5172685.0,
931.0,1630.0,2146.0,2137.0,5172689.0,
931.0,1629.0,2147.0,2133.0,5172693.0,
930.0,1631.0,2146.0,2131.0,5172696.0,
930.0,1628.0,2147.0,2125.0,5172700.0,
931.0,1629.0,2148.0,2127.0,5172703.0,
930.0,1630.0,2147.0,2125.0,5172707.0,
929.0,1629.0,2146.0,2125.0,5172711.0,
924.0,1629.0,2145.0,2123.0,5172714.0,
930.0,1626.0,2143.0,2125.0,5172718.0,
929.0,1627.0,2140.0,2123.0,5172722.0,
930.0,1630.0,2142.0,2123.0,5172725.0,
930.0,1629.0,2141.0,2123.0,5172729.0,
929.0,1630.0,2137.0,2120.0,5172733.0,
929.0,1628.0,2136.0,2118.0,5172736.0,
929.0,1629.0,2134.0,2121.0,5172740.0,
929.0,1629.0,2129.0,2114.0,5172743.0,
930.0,1628.0,2127.0,2113.0,5172747.0,
928.0,1629.0,2124.0,2112.0,5172751.0,
930.0,1630.0,2122.0,2110.0,5172754.0,
929.0,1628.0,2116.0,2105.0,5172758.0,
928.0,1627.0,2114.0,2108.0,5172762.0,
931.0,1629.0,2111.0,2103.0,5172765.0,
929.0,1632.0,2111.0,2103.0,5172769.0,
929.0,1629.0,2106.0,2100.0,5172774.0,
929.0,1630.0,2100.0,2099.0,5172778.0,
930.0,1627.0,2100.0,2095.0,5172781.0,
928.0,1629.0,2098.0,2094.0,5172785.0,
929.0,1626.0,2096.0,2092.0,5172789.0,
927.0,1628.0,2093.0,2088.0,5172792.0,
930.0,1627.0,2092.0,2081.0,5172796.0,
928.0,1628.0,2089.0,2080.0,5172799.0,
928.0,1631.0,2084.0,2072.0,5172803.0,
928.0,1629.0,2084.0,2063.0,5172807.0,
929.0,1629.0,2084.0,2059.0,5172810.0,
928.0,1628.0,2082.0,2054.0,5172814.0,
929.0,1628.0,2084.0,2049.0,5172818.0,
929.0,1630.0,2081.0,2044.0,5172821.0,
924.0,1626.0,2078.0,2040.0,5172825.0,
928.0,1630.0,2079.0,2035.0,5172828.0,
928.0,1630.0,2080.0,2035.0,5172832.0,
929.0,1629.0,2081.0,2030.0,5172836.0,
929.0,1629.0,2079.0,2033.0,5172839.0,
928.0,1629.0,2082.0,2027.0,5172843.0,
928.0,1628.0,2081.0,2026.0,5172847.0,
929.0,1628.0,2082.0,2021.0,5172850.0,
928.0,1628.0,2087.0,2017.0,5172854.0,
928.0,1629.0,2084.0,2014.0,5172858.0,
928.0,1628.0,2082.0,2012.0,5172861.0,
928.0,1629.0,2083.0,2009.0,5172865.0,
927.0,1631.0,2085.0,2012.0,5172868.0,
928.0,1628.0,2084.0,2012.0,5172872.0,
929.0,1628.0,2084.0,2009.0,5172876.0,
927.0,1629.0,2084.0,2010.0,5172879.0,
930.0,1629.0,2087.0,2006.0,5172883.0,
928.0,1629.0,2086.0,2003.0,5172887.0,
928.0,1627.0,2088.0,2001.0,5172890.0,
928.0,1630.0,2087.0,2000.0,5172894.0,
928.0,1630.0,2086.0,1994.0,5172898.0,
928.0,1631.0,2084.0,1995.0,5172901.0,
926.0,1629.0,2085.0,1991.0,5172905.0,
934.0,1629.0,2087.0,1992.0,5172908.0,
927.0,1628.0,2084.0,1993.0,5172912.0,
928.0,1628.0,2083.0,1991.0,5172916.0,
929.0,1630.0,2078.0,1994.0,5172919.0,
927.0,1628.0,2078.0,1993.0,5172923.0,
927.0,1630.0,2073.0,1994.0,5172927.0,
926.0,1630.0,2079.0,1992.0,5172930.0,
927.0,1630.0,2074.0,1991.0,5172934.0,
927.0,1630.0,2072.0,1993.0,5172938.0,
927.0,1630.0,2068.0,1997.0,5172941.0,
927.0,1630.0,2067.0,1995.0,5172945.0,
926.0,1629.0,2061.0,1997.0,5172948.0,
927.0,1629.0,2065.0,1997.0,5172952.0,
927.0,1630.0,2061.0,2001.0,5172956.0,
927.0,1630.0,2063.0,1999.0,5172959.0,
927.0,1631.0,2063.0,1999.0,5172963.0,
925.0,1630.0,2063.0,1995.0,5172967.0,
929.0,1630.0,2059.0,1993.0,5172970.0,
924.0,1629.0,2061.0,1989.0,5172974.0,
926.0,1629.0,2059.0,1988.0,5172977.0,
927.0,1629.0,2056.0,1984.0,5172981.0,
926.0,1630.0,2058.0,1980.0,5172985.0,
926.0,1635.0,2056.0,1977.0,5172988.0,
926.0,1631.0,2056.0,1976.0,5172992.0,
930.0,1630.0,2057.0,1975.0,5172996.0,
925.0,1631.0,2052.0,1972.0,5172999.0,
926.0,1631.0,2053.0,1966.0,5173003.0,
926.0,1632.0,2055.0,1969.0,5173007.0,
925.0,1631.0,2054.0,1964.0,5173010.0,
925.0,1632.0,2053.0,1961.0,5173014.0,
927.0,1630.0,2052.0,1958.0,5173017.0,
925.0,1628.0,2050.0,1954.0,5173021.0,
925.0,1630.0,2051.0,1952.0,5173025.0,
925.0,1630.0,2052.0,1950.0,5173028.0,
924.0,1630.0,2051.0,1946.0,5173032.0,
925.0,1632.0,2052.0,1944.0,5173036.0,
928.0,1631.0,2050.0,1941.0,5173039.0,
926.0,1629.0,2051.0,1937.0,5173043.0,
925.0,1631.0,2050.0,1935.0,5173047.0,
924.0,1631.0,2048.0,1933.0,5173050.0,
925.0,1629.0,2049.0,1929.0,5173054.0,
925.0,1629.0,2047.0,1934.0,5173057.0,
925.0,1631.0,2045.0,1936.0,5173061.0,
926.0,1631.0,2045.0,1936.0,5173065.0,
925.0,1631.0,2046.0,1938.0,5173068.0,
926.0,1630.0,2044.0,1938.0,5173072.0,
926.0,1630.0,2043.0,1941.0,5173076.0,
924.0,1631.0,2040.0,1941.0,5173079.0,
924.0,1630.0,2040.0,1942.0,5173083.0,
926.0,1630.0,2039.0,1944.0,5173086.0,
924.0,1630.0,2038.0,1946.0,5173090.0,
925.0,1630.0,2032.0,1945.0,5173094.0,
925.0,1624.0,2032.0,1950.0,5173097.0,
922.0,1628.0,2032.0,1949.0,5173101.0,
924.0,1630.0,2030.0,1948.0,5173105.0,
924.0,1630.0,2027.0,1949.0,5173108.0,
925.0,1627.0,2025.0,1944.0,5173112.0,
921.0,1629.0,2024.0,1945.0,5173116.0,
923.0,1629.0,2023.0,1945.0,5173119.0,
924.0,1629.0,2022.0,1942.0,5173123.0,
925.0,1627.0,2023.0,1941.0,5173126.0,
924.0,1629.0,2020.0,1940.0,5173130.0,
922.0,1629.0,2021.0,1938.0,5173134.0,
923.0,1629.0,2024.0,1928.0,5173137.0,
923.0,1630.0,2023.0,1935.0,5173141.0,
923.0,1628.0,2025.0,1934.0,5173145.0,
923.0,1631.0,2025.0,1936.0,5173148.0,
924.0,1629.0,2023.0,1940.0,5173152.0,
924.0,1630.0,2020.0,1941.0,5173156.0,
925.0,1629.0,2022.0,1946.0,5173159.0,
923.0,1630.0,2019.0,1949.0,5173163.0,
923.0,1630.0,2018.0,1949.0,5173166.0,
923.0,1629.0,2015.0,1951.0,5173170.0,
923.0,1633.0,2017.0,1955.0,5173174.0,
923.0,1631.0,2014.0,1959.0,5173177.0,
923.0,1630.0,2013.0,1960.0,5173181.0,
924.0,1629.0,2009.0,1964.0,5173185.0,
924.0,1628.0,2013.0,1962.0,5173188.0,
924.0,1630.0,2007.0,1961.0,5173192.0,
925.0,1630.0,2006.0,1963.0,5173195.0,
923.0,1631.0,2005.0,1960.0,5173199.0,
922.0,1631.0,2006.0,1956.0,5173203.0,
923.0,1629.0,2007.0,1956.0,5173206.0,
922.0,1629.0,2005.0,1956.0,5173210.0,
923.0,1628.0,2002.0,1950.0,5173214.0,
923.0,1633.0,2006.0,1947.0,5173217.0,
922.0,1629.0,2003.0,1942.0,5173221.0,
922.0,1629.0,2001.0,1938.0,5173225.0,
924.0,1629.0,2001.0,1935.0,5173228.0,
921.0,1628.0,2003.0,1930.0,5173232.0,
923.0,1629.0,1996.0,1929.0,5173235.0,
923.0,1628.0,1996.0,1927.0,5173239.0,
922.0,1629.0,1998.0,1929.0,5173243.0,
921.0,1628.0,1994.0,1923.0,5173246.0,
921.0,1630.0,1996.0,1926.0,5173250.0,
921.0,1629.0,1994.0,1923.0,5173254.0,
922.0,1628.0,1998.0,1923.0,5173257.0,
921.0,1629.0,1995.0,1927.0,5173261.0,
921.0,1631.0,1993.0,1927.0,5173265.0,
921.0,1630.0,1993.0,1928.0,5173268.0,
922.0,1629.0,1993.0,1927.0,5173272.0,
921.0,1631.0,1993.0,1932.0,5173275.0,
922.0,1629.0,1995.0,1936.0,5173279.0,
921.0,1629.0,1994.0,1937.0,5173283.0,
924.0,1627.0,1993.0,1940.0,5173286.0,
921.0,1629.0,1994.0,1939.0,5173290.0,
923.0,1629.0,1993.0,1943.0,5173294.0,
923.0,1629.0,1990.0,1951.0,5173297.0,
921.0,1631.0,1993.0,1951.0,5173301.0,
920.0,1634.0,1992.0,1955.0,5173304.0,
920.0,1630.0,1993.0,1958.0,5173308.0,
920.0,1630.0,1992.0,1957.0,5173312.0,
921.0,1630.0,1992.0,1961.0,5173315.0,
922.0,1630.0,1991.0,1962.0,5173319.0,
923.0,1630.0,1993.0,1965.0,5173323.0,
921.0,1629.0,1992.0,1969.0,5173326.0,
920.0,1630.0,1996.0,1972.0,5173330.0,
921.0,1631.0,1996.0,1978.0,5173334.0,
922.0,1630.0,2000.0,1982.0,5173337.0,
921.0,1631.0,2002.0,1987.0,5173341.0,
921.0,1628.0,2003.0,1992.0,5173344.0,
923.0,1632.0,2008.0,1995.0,5173348.0,
919.0,1631.0,2009.0,2000.0,5173352.0,
920.0,1630.0,2012.0,2007.0,5173355.0,
920.0,1630.0,2017.0,2012.0,5173359.0,
920.0,1630.0,2020.0,2016.0,5173363.0,
920.0,1630.0,2022.0,2017.0,5173366.0,
920.0,1631.0,2029.0,2023.0,5173370.0,
920.0,1631.0,2034.0,2025.0,5173374.0,
919.0,1631.0,2040.0,2030.0,5173377.0,
920.0,1631.0,2045.0,2034.0,5173381.0,
920.0,1630.0,2052.0,2037.0,5173384.0,
919.0,1632.0,2059.0,2042.0,5173388.0,
919.0,1630.0,2063.0,2046.0,5173392.0,
921.0,1630.0,2067.0,2044.0,5173395.0,
919.0,1630.0,2073.0,2043.0,5173399.0,
920.0,1630.0,2078.0,2046.0,5173403.0,
919.0,1632.0,2081.0,2048.0,5173406.0,
919.0,1630.0,2082.0,2050.0,5173410.0,
920.0,1631.0,2085.0,2051.0,5173413.0,
919.0,1632.0,2094.0,2056.0,5173417.0,
919.0,1630.0,2094.0,2057.0,5173421.0,
920.0,1632.0,2093.0,2058.0,5173424.0,
920.0,1629.0,2103.0,2060.0,5173428.0,
919.0,1631.0,2097.0,2066.0,5173432.0,
919.0,1629.0,2098.0,2067.0,5173435.0,
919.0,1629.0,2096.0,2069.0,5173439.0,
919.0,1631.0,2100.0,2071.0,5173443.0,
919.0,1629.0,2099.0,2073.0,5173446.0,
918.0,1629.0,2102.0,2074.0,5173450.0,
918.0,1630.0,2102.0,2078.0,5173453.0,
918.0,1632.0,2107.0,2077.0,5173457.0,
919.0,1630.0,2107.0,2078.0,5173461.0,
916.0,1631.0,2110.0,2081.0,5173464.0,
920.0,1631.0,2109.0,2082.0,5173468.0,
920.0,1629.0,2110.0,2086.0,5173472.0,
918.0,1628.0,2110.0,2084.0,5173475.0,
922.0,1632.0,2110.0,2089.0,5173479.0,
919.0,1631.0,2111.0,2087.0,5173483.0,
919.0,1630.0,2111.0,2085.0,5173486.0,
918.0,1631.0,2113.0,2089.0,5173490.0,
921.0,1631.0,2112.0,2091.0,5173493.0,
917.0,1631.0,2109.0,2091.0,5173497.0,
917.0,1630.0,2111.0,2085.0,5173501.0,
919.0,1632.0,2112.0,2085.0,5173504.0,
918.0,1631.0,2110.0,2085.0,5173508.0,
918.0,1630.0,2113.0,2083.0,5173512.0,
919.0,1629.0,2114.0,2086.0,5173515.0,
918.0,1628.0,2115.0,2087.0,5173519.0,
919.0,1635.0,2115.0,2082.0,5173523.0,
919.0,1631.0,2114.0,2080.0,5173526.0,
918.0,1631.0,2115.0,2074.0,5173530.0,
918.0,1629.0,2112.0,2073.0,5173533.0,
918.0,1631.0,2113.0,2073.0,5173537.0,
919.0,1629.0,2111.0,2067.0,5173541.0,
917.0,1630.0,2110.0,2069.0,5173544.0,
919.0,1630.0,2110.0,2064.0,5173548.0,
917.0,1630.0,2106.0,2066.0,5173552.0,
917.0,1631.0,2104.0,2059.0,5173555.0,
918.0,1628.0,2103.0,2061.0,5173559.0,
916.0,1629.0,2101.0,2056.0,5173562.0,
918.0,1631.0,2099.0,2055.0,5173566.0,
917.0,1626.0,2095.0,2053.0,5173570.0,
917.0,1629.0,2091.0,2051.0,5173573.0,
925.0,1629.0,2089.0,2049.0,5173577.0,
918.0,1627.0,2087.0,2049.0,5173581.0,
916.0,1630.0,2087.0,2049.0,5173584.0,
918.0,1629.0,2084.0,2048.0,5173588.0,
916.0,1631.0,2081.0,2049.0,5173592.0,
917.0,1629.0,2081.0,2044.0,5173595.0,
919.0,1633.0,2079.0,2044.0,5173599.0,
918.0,1629.0,2075.0,2041.0,5173602.0,
912.0,1629.0,2076.0,2039.0,5173606.0,
916.0,1630.0,2076.0,2040.0,5173610.0,
917.0,1629.0,2074.0,2030.0,5173613.0,
918.0,1628.0,2069.0,2042.0,5173617.0,
918.0,1627.0,2069.0,2030.0,5173621.0,
918.0,1628.0,2070.0,2022.0,5173624.0,
917.0,1628.0,2069.0,2019.0,5173628.0,
917.0,1629.0,2068.0,2020.0,5173632.0,
916.0,1628.0,2067.0,2015.0,5173635.0,
917.0,1627.0,2066.0,2015.0,5173639.0,
917.0,1628.0,2067.0,2006.0,5173642.0,
918.0,1627.0,2064.0,2008.0,5173646.0,
916.0,1627.0,2064.0,2003.0,5173650.0,
917.0,1627.0,2066.0,2002.0,5173653.0,
918.0,1628.0,2067.0,1997.0,5173657.0,
917.0,1628.0,2068.0,2000.0,5173661.0,
915.0,1628.0,2065.0,1997.0,5173664.0,
917.0,1627.0,2067.0,1999.0,5173668.0,
918.0,1626.0,2065.0,1997.0,5173671.0,
917.0,1627.0,2068.0,1992.0,5173675.0,
917.0,1628.0,2066.0,1994.0,5173679.0,
917.0,1628.0,2068.0,1990.0,5173682.0,
916.0,1628.0,2067.0,1988.0,5173686.0,
915.0,1628.0,2065.0,1982.0,5173690.0,
917.0,1626.0,2067.0,1979.0,5173693.0,
917.0,1626.0,2065.0,1975.0,5173697.0,
917.0,1626.0,2063.0,1973.0,5173701.0,
916.0,1627.0,2063.0,1968.0,5173704.0,
911.0,1627.0,2061.0,1965.0,5173708.0,
916.0,1627.0,2063.0,1963.0,5173711.0,
917.0,1626.0,2061.0,1961.0,5173715.0,
915.0,1625.0,2059.0,1960.0,5173719.0,
916.0,1626.0,2057.0,1958.0,5173722.0,
917.0,1624.0,2056.0,1955.0,5173726.0,
915.0,1627.0,2054.0,1952.0,5173730.0,
916.0,1628.0,2052.0,1954.0,5173733.0,
916.0,1626.0,2053.0,1948.0,5173737.0,
911.0,1627.0,2050.0,1947.0,5173741.0,
916.0,1626.0,2049.0,1944.0,5173744.0,
916.0,1626.0,2047.0,1944.0,5173748.0,
915.0,1628.0,2045.0,1943.0,5173751.0,
916.0,1625.0,2042.0,1941.0,5173755.0,
917.0,1626.0,2048.0,1939.0,5173759.0,
916.0,1627.0,2039.0,1939.0,5173762.0,
915.0,1625.0,2036.0,1940.0,5173766.0,
914.0,1628.0,2034.0,1940.0,5173770.0,
917.0,1625.0,2033.0,1938.0,5173773.0,
915.0,1626.0,2030.0,1938.0,5173777.0,
914.0,1626.0,2028.0,1938.0,5173780.0,
915.0,1624.0,2024.0,1936.0,5173784.0,
916.0,1625.0,2022.0,1935.0,5173788.0,
915.0,1625.0,2020.0,1934.0,5173791.0,
913.0,1624.0,2017.0,1929.0,5173795.0,
915.0,1625.0,2017.0,1932.0,5173799.0,
915.0,1624.0,2017.0,1934.0,5173802.0,
915.0,1625.0,2014.0,1932.0,5173806.0,
915.0,1627.0,2016.0,1934.0,5173810.0,
915.0,1624.0,2013.0,1932.0,5173813.0,
915.0,1625.0,2016.0,1933.0,5173817.0,
915.0,1620.0,2015.0,1934.0,5173820.0,
915.0,1624.0,2013.0,1933.0,5173824.0,
913.0,1625.0,2014.0,1931.0,5173828.0,
916.0,1624.0,2014.0,1928.0,5173831.0,
915.0,1625.0,2012.0,1929.0,5173835.0,
913.0,1623.0,2014.0,1925.0,5173839.0,
915.0,1623.0,2017.0,1919.0,5173842.0,
915.0,1624.0,2015.0,1918.0,5173846.0,
915.0,1624.0,2014.0,1914.0,5173850.0,
914.0,1623.0,2014.0,1911.0,5173853.0,
913.0,1626.0,2014.0,1913.0,5173857.0,
914.0,1624.0,2014.0,1912.0,5173860.0,
915.0,1625.0,2015.0,1908.0,5173864.0,
914.0,1625.0,2016.0,1908.0,5173868.0,
909.0,1624.0,2017.0,1905.0,5173871.0,
915.0,1625.0,2016.0,1909.0,5173875.0,
914.0,1623.0,2015.0,1907.0,5173879.0,
913.0,1624.0,2013.0,1908.0,5173882.0,
915.0,1624.0,2011.0,1909.0,5173886.0,
909.0,1623.0,2013.0,1910.0,5173890.0,
914.0,1625.0,2011.0,1911.0,5173893.0,
913.0,1624.0,2012.0,1910.0,5173897.0,
914.0,1624.0,2009.0,1912.0,5173900.0,
914.0,1624.0,2009.0,1911.0,5173904.0,
912.0,1624.0,2008.0,1916.0,5173908.0,
914.0,1622.0,2011.0,1917.0,5173911.0,
914.0,1623.0,2008.0,1917.0,5173915.0,
910.0,1624.0,2007.0,1920.0,5173919.0,
913.0,1624.0,2007.0,1917.0,5173922.0,
920.0,1625.0,2005.0,1918.0,5173926.0,
913.0,1622.0,2003.0,1922.0,5173929.0,
914.0,1627.0,2000.0,1924.0,5173933.0,
915.0,1623.0,1999.0,1923.0,5173937.0,
914.0,1625.0,1995.0,1923.0,5173940.0,
915.0,1622.0,2001.0,1919.0,5173944.0,
913.0,1622.0,1996.0,1919.0,5173948.0,
913.0,1622.0,1995.0,1918.0,5173951.0,
914.0,1624.0,1994.0,1918.0,5173955.0,
913.0,1622.0,1994.0,1916.0,5173959.0,
912.0,1623.0,1995.0,1913.0,5173962.0,
912.0,1622.0,1995.0,1911.0,5173966.0,
913.0,1623.0,1993.0,1910.0,5173969.0,
918.0,1623.0,1996.0,1903.0,5173973.0,
914.0,1622.0,1997.0,1902.0,5173977.0,
913.0,1624.0,1994.0,1899.0,5173980.0,
914.0,1622.0,1993.0,1894.0,5173984.0,
913.0,1623.0,1993.0,1889.0,5173988.0,
914.0,1622.0,1997.0,1889.0,5173991.0,
914.0,1624.0,1993.0,1891.0,5173995.0,
912.0,1622.0,1992.0,1879.0,5173999.0,
912.0,1627.0,1989.0,1886.0,5174002.0,
914.0,1623.0,1992.0,1886.0,5174006.0,
912.0,1622.0,1990.0,1887.0,5174009.0,
913.0,1620.0,1988.0,1891.0,5174013.0,
915.0,1623.0,1986.0,1890.0,5174017.0,
913.0,1622.0,1987.0,1892.0,5174020.0,
912.0,1622.0,1986.0,1890.0,5174024.0,
913.0,1622.0,1989.0,1893.0,5174028.0,
913.0,1623.0,1985.0,1891.0,5174031.0,
914.0,1622.0,1987.0,1891.0,5174035.0,
911.0,1619.0,1987.0,1893.0,5174038.0,
914.0,1621.0,1990.0,1894.0,5174042.0,
913.0,1622.0,1988.0,1896.0,5174046.0,
912.0,1621.0,1987.0,1898.0,5174049.0,
912.0,1622.0,1986.0,1901.0,5174053.0,
912.0,1622.0,1987.0,1905.0,5174057.0,
913.0,1621.0,1988.0,1904.0,5174060.0,
913.0,1622.0,1986.0,1906.0,5174064.0,
912.0,1621.0,1987.0,1907.0,5174068.0,
912.0,1620.0,1990.0,1913.0,5174071.0,
912.0,1620.0,1989.0,1906.0,5174075.0,
912.0,1622.0,1990.0,1911.0,5174078.0,
914.0,1623.0,1990.0,1914.0,5174082.0,
913.0,1624.0,1990.0,1914.0,5174086.0,
912.0,1621.0,1987.0,1919.0,5174089.0,
912.0,1622.0,1989.0,1924.0,5174093.0,
912.0,1624.0,1987.0,1928.0,5174097.0,
912.0,1622.0,1987.0,1931.0,5174100.0,
907.0,1621.0,1986.0,1935.0,5174104.0,
912.0,1625.0,1988.0,1939.0,5174108.0,
913.0,1620.0,1987.0,1942.0,5174111.0,
912.0,1621.0,1989.0,1946.0,5174115.0,
916.0,1623.0,1990.0,1953.0,5174118.0,
911.0,1620.0,1991.0,1958.0,5174122.0,
911.0,1622.0,1991.0,1963.0,5174126.0,
911.0,1622.0,1993.0,1971.0,5174129.0,
912.0,1621.0,1993.0,1973.0,5174133.0,
912.0,1622.0,1996.0,1981.0,5174137.0,
911.0,1621.0,1997.0,1985.0,5174140.0,
913.0,1621.0,1998.0,1991.0,5174144.0,
911.0,1620.0,2002.0,1996.0,5174147.0,
911.0,1621.0,2002.0,2001.0,5174151.0,
911.0,1620.0,2002.0,2014.0,5174155.0,
912.0,1621.0,2004.0,2015.0,5174158.0,
911.0,1621.0,2007.0,2019.0,5174162.0,
910.0,1623.0,2010.0,2025.0,5174166.0,
911.0,1622.0,2011.0,2028.0,5174169.0,
911.0,1621.0,2023.0,2032.0,5174173.0,
910.0,1621.0,2022.0,2037.0,5174177.0,
910.0,1621.0,2028.0,2045.0,5174180.0,
910.0,1621.0,2033.0,2048.0,5174184.0,
910.0,1620.0,2042.0,2052.0,5174187.0,
911.0,1620.0,2044.0,2053.0,5174191.0,
911.0,1620.0,2050.0,2059.0,5174195.0,
911.0,1620.0,2054.0,2062.0,5174198.0,
911.0,1620.0,2058.0,2068.0,5174202.0,
912.0,1620.0,2062.0,2061.0,5174206.0,
910.0,1619.0,2065.0,2074.0,5174209.0,
910.0,1624.0,2071.0,2073.0,5174213.0,
911.0,1619.0,2076.0,2076.0,5174217.0,
910.0,1621.0,2080.0,2077.0,5174220.0,
910.0,1620.0,2084.0,2075.0,5174224.0,
910.0,1621.0,2085.0,2074.0,5174227.0,
908.0,1619.0,2087.0,2071.0,5174231.0,
910.0,1621.0,2090.0,2070.0,5174235.0,
911.0,1620.0,2092.0,2069.0,5174238.0,
910.0,1621.0,2093.0,2067.0,5174242.0,
911.0,1620.0,2095.0,2065.0,5174246.0,
911.0,1621.0,2096.0,2061.0,5174249.0,
911.0,1619.0,2096.0,2060.0,5174253.0,
910.0,1621.0,2096.0,2050.0,5174257.0,
911.0,1620.0,2096.0,2051.0,5174260.0,
909.0,1621.0,2097.0,2051.0,5174264.0,
910.0,1621.0,2098.0,2049.0,5174267.0,
910.0,1620.0,2100.0,2048.0,5174271.0,
912.0,1620.0,2098.0,2047.0,5174275.0,
909.0,1620.0,2097.0,2050.0,5174278.0,
907.0,1621.0,2098.0,2047.0,5174282.0,
910.0,1620.0,2097.0,2052.0,5174286.0,
909.0,1619.0,2098.0,2050.0,5174289.0,
909.0,1620.0,2099.0,2053.0,5174293.0,
909.0,1617.0,2097.0,2054.0,5174296.0,
910.0,1619.0,2097.0,2058.0,5174300.0,
910.0,1623.0,2099.0,2062.0,5174304.0,
910.0,1622.0,2099.0,2064.0,5174307.0,
909.0,1618.0,2097.0,2065.0,5174311.0,
910.0,1619.0,2098.0,2065.0,5174315.0,
909.0,1621.0,2098.0,2061.0,5174318.0,
909.0,1620.0,2100.0,2062.0,5174322.0,
909.0,1619.0,2096.0,2058.0,5174326.0,
909.0,1620.0,2098.0,2059.0,5174329.0,
907.0,1619.0,2098.0,2056.0,5174333.0,
909.0,1619.0,2098.0,2054.0,5174336.0,
909.0,1620.0,2097.0,2049.0,5174340.0,
910.0,1619.0,2097.0,2048.0,5174344.0,
909.0,1621.0,2096.0,2042.0,5174347.0,
909.0,1622.0,2095.0,2042.0,5174351.0,
909.0,1620.0,2095.0,2038.0,5174355.0,
908.0,1621.0,2093.0,2042.0,5174358.0,
909.0,1620.0,2094.0,2036.0,5174362.0,
910.0,1619.0,2093.0,2034.0,5174366.0,
909.0,1620.0,2092.0,2030.0,5174369.0,
910.0,1620.0,2091.0,2029.0,5174373.0,
908.0,1620.0,2093.0,2033.0,5174376.0,
909.0,1623.0,2090.0,2023.0,5174380.0,
910.0,1618.0,2089.0,2022.0,5174384.0,
909.0,1619.0,2088.0,2018.0,5174387.0,
910.0,1619.0,2086.0,2014.0,5174391.0,
909.0,1622.0,2084.0,2012.0,5174395.0,
908.0,1621.0,2084.0,2010.0,5174398.0,
908.0,1620.0,2080.0,2006.0,5174402.0,
909.0,1619.0,2078.0,2004.0,5174405.0,
908.0,1623.0,2077.0,2001.0,5174409.0,
908.0,1620.0,2074.0,1996.0,5174413.0,
908.0,1619.0,2073.0,1994.0,5174416.0,
909.0,1621.0,2070.0,1993.0,5174420.0,
909.0,1619.0,2067.0,1993.0,5174424.0,
908.0,1621.0,2066.0,1987.0,5174427.0,
910.0,1620.0,2066.0,1990.0,5174431.0,
908.0,1619.0,2069.0,1990.0,5174435.0,
908.0,1619.0,2061.0,1992.0,5174438.0,
910.0,1620.0,2059.0,1989.0,5174442.0,
909.0,1619.0,2059.0,1987.0,5174445.0,
910.0,1616.0,2056.0,1987.0,5174449.0,
909.0,1620.0,2056.0,1983.0,5174453.0,
910.0,1620.0,2051.0,1986.0,5174456.0,
915.0,1619.0,2051.0,1983.0,5174460.0,
907.0,1620.0,2049.0,1985.0,5174464.0,
908.0,1615.0,2047.0,1985.0,5174467.0,
907.0,1621.0,2045.0,1986.0,5174471.0,
908.0,1620.0,2042.0,1985.0,5174475.0,
906.0,1616.0,2042.0,1984.0,5174478.0,
907.0,1617.0,2040.0,1984.0,5174482.0,
907.0,1621.0,2042.0,1984.0,5174485.0,
908.0,1620.0,2044.0,1986.0,5174489.0,
908.0,1619.0,2041.0,1987.0,5174493.0,
907.0,1619.0,2041.0,1985.0,5174496.0,
908.0,1617.0,2042.0,1986.0,5174500.0,
908.0,1620.0,2042.0,1984.0,5174504.0,
907.0,1619.0,2043.0,1982.0,5174507.0,
908.0,1620.0,2044.0,1983.0,5174511.0,
907.0,1619.0,2044.0,1982.0,5174515.0,
909.0,1618.0,2046.0,1982.0,5174518.0,
907.0,1619.0,2043.0,1981.0,5174522.0,
907.0,1620.0,2046.0,1981.0,5174525.0,
907.0,1620.0,2045.0,1980.0,5174529.0,
913.0,1620.0,2042.0,1981.0,5174533.0,
908.0,1618.0,2044.0,1979.0,5174536.0,
908.0,1619.0,2043.0,1980.0,5174540.0,
907.0,1617.0,2043.0,1978.0,5174544.0,
907.0,1619.0,2041.0,1978.0,5174547.0,
902.0,1619.0,2043.0,1979.0,5174551.0,
909.0,1618.0,2041.0,1978.0,5174554.0,
908.0,1619.0,2040.0,1977.0,5174558.0,
907.0,1617.0,2045.0,1976.0,5174562.0,
907.0,1620.0,2044.0,1977.0,5174565.0,
907.0,1619.0,2039.0,1978.0,5174569.0,
906.0,1618.0,2038.0,1978.0,5174573.0,
907.0,1618.0,2039.0,1975.0,5174576.0,
907.0,1618.0,2040.0,1976.0,5174580.0,
900.0,1618.0,2039.0,1975.0,5174584.0,
912.0,1619.0,2038.0,1977.0,5174587.0,
907.0,1619.0,2039.0,1977.0,5174591.0,
905.0,1619.0,2039.0,1975.0,5174594.0,
907.0,1619.0,2039.0,1973.0,5174598.0,
901.0,1617.0,2040.0,1973.0,5174602.0,
908.0,1616.0,2039.0,1970.0,5174605.0,
907.0,1618.0,2040.0,1965.0,5174609.0,
906.0,1619.0,2035.0,1966.0,5174613.0,
906.0,1617.0,2038.0,1961.0,5174616.0,
907.0,1618.0,2037.0,1960.0,5174620.0,
906.0,1616.0,2037.0,1958.0,5174624.0,
906.0,1619.0,2034.0,1953.0,5174627.0,
906.0,1619.0,2033.0,1951.0,5174631.0,
907.0,1620.0,2033.0,1944.0,5174634.0,
905.0,1618.0,2033.0,1945.0,5174638.0,
904.0,1618.0,2031.0,1943.0,5174642.0,
906.0,1618.0,2028.0,1938.0,5174645.0,
905.0,1618.0,2030.0,1939.0,5174649.0,
906.0,1616.0,2026.0,1935.0,5174653.0,
906.0,1617.0,2027.0,1934.0,5174656.0,
906.0,1616.0,2024.0,1932.0,5174660.0,
907.0,1618.0,2023.0,1927.0,5174663.0,
907.0,1618.0,2020.0,1930.0,5174667.0,
906.0,1618.0,2019.0,1927.0,5174671.0,
906.0,1617.0,2019.0,1931.0,5174674.0,
906.0,1617.0,2019.0,1932.0,5174678.0,
905.0,1618.0,2018.0,1932.0,5174682.0,
904.0,1618.0,2017.0,1934.0,5174685.0,
905.0,1618.0,2019.0,1936.0,5174689.0,
905.0,1618.0,2018.0,1945.0,5174693.0,
905.0,1618.0,2016.0,1943.0,5174696.0,
906.0,1617.0,2014.0,1944.0,5174700.0,
906.0,1618.0,2015.0,1949.0,5174703.0,
905.0,1617.0,2013.0,1950.0,5174707.0,
905.0,1617.0,2015.0,1952.0,5174711.0,
905.0,1618.0,2017.0,1954.0,5174714.0,
904.0,1617.0,2015.0,1955.0,5174718.0,
910.0,1617.0,2016.0,1958.0,5174722.0,
905.0,1617.0,2016.0,1956.0,5174725.0,
905.0,1616.0,2016.0,1955.0,5174729.0,
904.0,1618.0,2017.0,1954.0,5174733.0,
905.0,1616.0,2019.0,1953.0,5174736.0,
904.0,1618.0,2016.0,1955.0,5174740.0,
905.0,1617.0,2016.0,1950.0,5174743.0,
905.0,1617.0,2013.0,1946.0,5174747.0,
905.0,1617.0,2015.0,1942.0,5174751.0,
904.0,1615.0,2014.0,1941.0,5174754.0,
904.0,1616.0,2015.0,1936.0,5174758.0,
905.0,1616.0,2014.0,1933.0,5174762.0,
903.0,1615.0,2014.0,1931.0,5174765.0,
904.0,1615.0,2014.0,1930.0,5174769.0,
905.0,1620.0,2014.0,1929.0,5174772.0,
905.0,1616.0,2017.0,1927.0,5174776.0,
905.0,1617.0,2018.0,1926.0,5174780.0,
904.0,1617.0,2019.0,1927.0,5174783.0,
904.0,1618.0,2021.0,1926.0,5174787.0,
904.0,1618.0,2020.0,1927.0,5174791.0,
904.0,1616.0,2024.0,1927.0,5174794.0,
904.0,1617.0,2021.0,1920.0,5174798.0,
904.0,1616.0,2021.0,1931.0,5174802.0,
905.0,1621.0,2018.0,1931.0,5174805.0,
905.0,1618.0,2018.0,1931.0,5174809.0,
905.0,1617.0,2017.0,1931.0,5174812.0,
905.0,1617.0,2013.0,1931.0,5174816.0,
905.0,1617.0,2014.0,1934.0,5174820.0,
903.0,1617.0,2013.0,1934.0,5174823.0,
903.0,1617.0,2011.0,1934.0,5174827.0,
904.0,1617.0,2011.0,1931.0,5174831.0,
903.0,1616.0,2011.0,1932.0,5174834.0,
904.0,1616.0,2009.0,1931.0,5174838.0,
903.0,1617.0,2008.0,1933.0,5174842.0,
903.0,1617.0,2004.0,1932.0,5174845.0,
903.0,1616.0,2007.0,1930.0,5174849.0,
902.0,1616.0,2006.0,1926.0,5174852.0,
902.0,1619.0,2006.0,1925.0,5174856.0,
904.0,1616.0,2004.0,1924.0,5174860.0,
902.0,1617.0,2002.0,1921.0,5174863.0,
903.0,1617.0,2003.0,1916.0,5174867.0,
903.0,1617.0,2002.0,1919.0,5174871.0,
905.0,1617.0,2000.0,1917.0,5174874.0,
902.0,1617.0,1999.0,1914.0,5174878.0,
903.0,1617.0,1996.0,1919.0,5174881.0,
899.0,1615.0,1995.0,1918.0,5174885.0,
903.0,1618.0,1992.0,1918.0,5174889.0,
902.0,1617.0,1992.0,1920.0,5174892.0,
901.0,1617.0,1989.0,1923.0,5174896.0,
901.0,1614.0,1987.0,1928.0,5174900.0,
903.0,1616.0,1987.0,1932.0,5174903.0,
902.0,1615.0,1988.0,1936.0,5174907.0,
901.0,1618.0,1987.0,1941.0,5174911.0,
901.0,1616.0,1984.0,1949.0,5174914.0,
902.0,1617.0,1982.0,1950.0,5174918.0,
902.0,1619.0,1982.0,1955.0,5174921.0,
902.0,1618.0,1981.0,1956.0,5174925.0,
902.0,1616.0,1982.0,1963.0,5174929.0,
902.0,1616.0,1980.0,1966.0,5174932.0,
903.0,1617.0,1982.0,1972.0,5174936.0,
901.0,1618.0,1981.0,1976.0,5174940.0,
902.0,1616.0,1984.0,1982.0,5174943.0,
902.0,1618.0,1985.0,1986.0,5174947.0,
901.0,1617.0,1988.0,1994.0,5174951.0,
900.0,1617.0,1989.0,1999.0,5174954.0,
901.0,1619.0,1993.0,2005.0,5174958.0,
901.0,1618.0,1996.0,2015.0,5174961.0,
901.0,1616.0,2001.0,2010.0,5174965.0,
902.0,1618.0,2004.0,2017.0,5174969.0,
901.0,1617.0,2006.0,2020.0,5174972.0,
901.0,1617.0,2013.0,2024.0,5174976.0,
901.0,1616.0,2018.0,2023.0,5174980.0,
901.0,1617.0,2020.0,2031.0,5174983.0,
902.0,1616.0,2027.0,2037.0,5174987.0,
901.0,1618.0,2029.0,2047.0,5174991.0,
901.0,1619.0,2035.0,2049.0,5174994.0,
901.0,1616.0,2044.0,2053.0,5174998.0,
901.0,1617.0,2041.0,2053.0,5175001.0,
901.0,1617.0,2043.0,2048.0,5175005.0,
900.0,1617.0,2047.0,2056.0,5175009.0,
902.0,1617.0,2050.0,2063.0,5175012.0,
901.0,1618.0,2054.0,2064.0,5175016.0,
902.0,1617.0,2058.0,2068.0,5175020.0,
899.0,1618.0,2059.0,2070.0,5175023.0,
901.0,1615.0,2063.0,2073.0,5175027.0,
901.0,1620.0,2068.0,2077.0,5175030.0,
900.0,1618.0,2069.0,2074.0,5175034.0,
899.0,1617.0,2073.0,2075.0,5175038.0,
900.0,1617.0,2077.0,2073.0,5175041.0,
898.0,1618.0,2078.0,2077.0,5175045.0,
901.0,1616.0,2082.0,2079.0,5175049.0,
902.0,1616.0,2085.0,2079.0,5175052.0,
895.0,1619.0,2086.0,2082.0,5175056.0,
901.0,1618.0,2090.0,2085.0,5175060.0,
902.0,1617.0,2090.0,2083.0,5175063.0,
900.0,1618.0,2090.0,2088.0,5175067.0,
900.0,1617.0,2091.0,2087.0,5175070.0,
900.0,1617.0,2089.0,2089.0,5175074.0,
900.0,1612.0,2090.0,2087.0,5175078.0,
900.0,1618.0,2089.0,2089.0,5175081.0,
901.0,1616.0,2092.0,2087.0,5175085.0,
900.0,1616.0,2090.0,2089.0,5175089.0,
903.0,1619.0,2090.0,2084.0,5175092.0,
900.0,1620.0,2088.0,2080.0,5175096.0,
900.0,1617.0,2088.0,2079.0,5175100.0,
901.0,1619.0,2089.0,2076.0,5175103.0,
900.0,1617.0,2088.0,2073.0,5175107.0,
899.0,1618.0,2086.0,2068.0,5175110.0,
901.0,1617.0,2088.0,2065.0,5175114.0,
900.0,1619.0,2086.0,2066.0,5175118.0,
899.0,1617.0,2088.0,2054.0,5175121.0,
900.0,1619.0,2088.0,2060.0,5175125.0,
900.0,1616.0,2088.0,2058.0,5175129.0,
900.0,1617.0,2087.0,2059.0,5175132.0,
900.0,1617.0,2090.0,2055.0,5175136.0,
900.0,1619.0,2089.0,2055.0,5175140.0,
901.0,1619.0,2091.0,2053.0,5175143.0,
898.0,1618.0,2089.0,2053.0,5175147.0,
898.0,1617.0,2092.0,2048.0,5175150.0,
900.0,1624.0,2091.0,2050.0,5175154.0,
899.0,1616.0,2091.0,2045.0,5175158.0,
899.0,1619.0,2093.0,2043.0,5175161.0,
899.0,1619.0,2092.0,2041.0,5175165.0,
900.0,1619.0,2094.0,2040.0,5175169.0,
899.0,1619.0,2094.0,2034.0,5175172.0,
898.0,1618.0,2094.0,2033.0,5175176.0,
899.0,1618.0,2095.0,2029.0,5175179.0,
899.0,1622.0,2094.0,2029.0,5175183.0,
899.0,1618.0,2096.0,2026.0,5175187.0,
899.0,1619.0,2093.0,2028.0,5175190.0,
899.0,1617.0,2095.0,2025.0,5175194.0,
898.0,1617.0,2092.0,2025.0,5175198.0,
900.0,1618.0,2091.0,2025.0,5175201.0,
899.0,1619.0,2091.0,2024.0,5175205.0,
901.0,1613.0,2091.0,2020.0,5175209.0,
901.0,1617.0,2087.0,2022.0,5175212.0,
899.0,1616.0,2089.0,2009.0,5175216.0,
900.0,1618.0,2088.0,2018.0,5175219.0,
900.0,1618.0,2083.0,2014.0,5175223.0,
898.0,1617.0,2083.0,2011.0,5175227.0,
900.0,1617.0,2083.0,2008.0,5175230.0,
899.0,1618.0,2082.0,2005.0,5175234.0,
898.0,1618.0,2081.0,2007.0,5175238.0,
899.0,1618.0,2080.0,2001.0,5175241.0,
899.0,1617.0,2076.0,2000.0,5175245.0,
898.0,1617.0,2076.0,1997.0,5175249.0,
898.0,1618.0,2077.0,1999.0,5175252.0,
898.0,1616.0,2077.0,1997.0,5175256.0,
899.0,1617.0,2074.0,1999.0,5175259.0,
896.0,1615.0,2076.0,1998.0,5175263.0,
898.0,1619.0,2073.0,1999.0,5175267.0,
897.0,1617.0,2076.0,1999.0,5175270.0,
898.0,1617.0,2074.0,1999.0,5175274.0,
898.0,1618.0,2076.0,1999.0,5175278.0,
898.0,1620.0,2075.0,1999.0,5175281.0,
898.0,1617.0,2076.0,1990.0,5175285.0,
898.0,1618.0,2075.0,1999.0,5175288.0,
898.0,1618.0,2075.0,1998.0,5175292.0,
898.0,1618.0,2075.0,1998.0,5175296.0,
896.0,1618.0,2076.0,1999.0,5175299.0,
897.0,1617.0,2075.0,2000.0,5175303.0,
897.0,1617.0,2076.0,1997.0,5175307.0,
897.0,1616.0,2070.0,1997.0,5175310.0,
897.0,1615.0,2073.0,1995.0,5175314.0,
897.0,1616.0,2074.0,1994.0,5175318.0,
892.0,1617.0,2074.0,1991.0,5175321.0,
897.0,1614.0,2072.0,1993.0,5175325.0,
897.0,1617.0,2072.0,1991.0,5175328.0,
898.0,1616.0,2069.0,1991.0,5175332.0,
898.0,1616.0,2070.0,1990.0,5175336.0,
898.0,1617.0,2069.0,1992.0,5175339.0,
897.0,1616.0,2064.0,1991.0,5175343.0,
898.0,1618.0,2064.0,1991.0,5175347.0,
897.0,1617.0,2062.0,1990.0,5175350.0,
897.0,1616.0,2059.0,1992.0,5175354.0,
897.0,1617.0,2059.0,1990.0,5175358.0,
895.0,1616.0,2056.0,1993.0,5175361.0,
896.0,1615.0,2054.0,1991.0,5175365.0,
897.0,1617.0,2054.0,1995.0,5175368.0,
897.0,1616.0,2056.0,1995.0,5175372.0,
898.0,1616.0,2053.0,1996.0,5175376.0,
902.0,1615.0,2051.0,1994.0,5175379.0,
897.0,1615.0,2048.0,1997.0,5175383.0,
896.0,1616.0,2047.0,1996.0,5175387.0,
897.0,1616.0,2045.0,1993.0,5175390.0,
896.0,1615.0,2043.0,1995.0,5175394.0,
897.0,1615.0,2043.0,1997.0,5175397.0,
897.0,1616.0,2043.0,1993.0,5175401.0,
896.0,1617.0,2041.0,1992.0,5175405.0,
896.0,1616.0,2039.0,1990.0,5175408.0,
897.0,1615.0,2031.0,1985.0,5175412.0,
897.0,1616.0,2036.0,1981.0,5175416.0,
897.0,1617.0,2037.0,1984.0,5175419.0,
897.0,1618.0,2034.0,1988.0,5175423.0,
895.0,1616.0,2036.0,1976.0,5175427.0,
895.0,1615.0,2034.0,1975.0,5175430.0,
895.0,1616.0,2032.0,1968.0,5175434.0,
897.0,1615.0,2035.0,1966.0,5175437.0,
896.0,1616.0,2034.0,1963.0,5175441.0,
896.0,1616.0,2033.0,1961.0,5175445.0,
896.0,1616.0,2034.0,1961.0,5175448.0,
896.0,1617.0,2032.0,1962.0,5175452.0,
895.0,1615.0,2033.0,1961.0,5175456.0,
896.0,1617.0,2031.0,1964.0,5175459.0,
895.0,1616.0,2030.0,1961.0,5175463.0,
896.0,1618.0,2031.0,1963.0,5175467.0,
895.0,1616.0,2032.0,1962.0,5175470.0,
895.0,1617.0,2033.0,1958.0,5175474.0,
896.0,1616.0,2032.0,1956.0,5175477.0,
892.0,1617.0,2030.0,1959.0,5175481.0,
895.0,1617.0,2030.0,1960.0,5175485.0,
896.0,1615.0,2030.0,1954.0,5175488.0,
895.0,1613.0,2029.0,1949.0,5175492.0,
895.0,1618.0,2030.0,1951.0,5175496.0,
895.0,1616.0,2031.0,1952.0,5175499.0,
895.0,1616.0,2031.0,1948.0,5175503.0,
897.0,1615.0,2030.0,1949.0,5175507.0,
895.0,1616.0,2031.0,1949.0,5175510.0,
896.0,1616.0,2032.0,1946.0,5175514.0,
895.0,1617.0,2033.0,1946.0,5175517.0,
895.0,1614.0,2031.0,1948.0,5175521.0,
895.0,1615.0,2030.0,1949.0,5175525.0,
895.0,1616.0,2030.0,1952.0,5175528.0,
895.0,1616.0,2027.0,1952.0,5175532.0,
893.0,1613.0,2028.0,1949.0,5175536.0,
894.0,1615.0,2026.0,1950.0,5175539.0,
895.0,1615.0,2028.0,1953.0,5175543.0,
894.0,1615.0,2027.0,1953.0,5175546.0,
894.0,1616.0,2027.0,1955.0,5175550.0,
895.0,1615.0,2023.0,1956.0,5175554.0,
895.0,1616.0,2025.0,1954.0,5175557.0,
895.0,1616.0,2024.0,1955.0,5175561.0,
894.0,1615.0,2023.0,1954.0,5175565.0,
894.0,1614.0,2024.0,1953.0,5175568.0,
894.0,1614.0,2023.0,1956.0,5175572.0,
895.0,1618.0,2024.0,1953.0,5175576.0,
891.0,1614.0,2024.0,1949.0,5175579.0,
895.0,1615.0,2025.0,1953.0,5175583.0,
895.0,1616.0,2025.0,1951.0,5175586.0,
894.0,1614.0,2031.0,1953.0,5175590.0,
892.0,1614.0,2027.0,1952.0,5175594.0,
894.0,1615.0,2024.0,1952.0,5175597.0,
894.0,1615.0,2026.0,1954.0,5175601.0,
893.0,1615.0,2024.0,1952.0,5175605.0,
894.0,1616.0,2026.0,1952.0,5175608.0,
893.0,1614.0,2027.0,1955.0,5175612.0,
894.0,1614.0,2026.0,1956.0,5175616.0,
893.0,1615.0,2022.0,1957.0,5175619.0,
894.0,1616.0,2027.0,1959.0,5175623.0,
888.0,1615.0,2025.0,1960.0,5175626.0,
894.0,1614.0,2024.0,1961.0,5175630.0,
895.0,1615.0,2025.0,1960.0,5175634.0,
892.0,1619.0,2023.0,1961.0,5175637.0,
895.0,1615.0,2024.0,1963.0,5175641.0,
894.0,1616.0,2022.0,1958.0,5175645.0,
893.0,1615.0,2020.0,1960.0,5175648.0,
893.0,1616.0,2019.0,1963.0,5175652.0,
893.0,1615.0,2020.0,1960.0,5175655.0,
895.0,1615.0,2018.0,1958.0,5175659.0,
892.0,1614.0,2020.0,1961.0,5175663.0,
893.0,1614.0,2021.0,1958.0,5175666.0,
894.0,1616.0,2020.0,1957.0,5175670.0,
894.0,1615.0,2020.0,1958.0,5175674.0,
893.0,1617.0,2019.0,1958.0,5175677.0,
893.0,1615.0,2016.0,1956.0,5175681.0,
886.0,1616.0,2019.0,1953.0,5175685.0,
893.0,1614.0,2019.0,1951.0,5175688.0,
893.0,1616.0,2019.0,1951.0,5175692.0,
892.0,1613.0,2018.0,1952.0,5175695.0,
892.0,1614.0,2016.0,1952.0,5175699.0,
887.0,1613.0,2016.0,1953.0,5175703.0,
892.0,1615.0,2015.0,1952.0,5175706.0,
892.0,1614.0,2012.0,1951.0,5175710.0,
893.0,1613.0,2014.0,1952.0,5175714.0,
893.0,1616.0,2013.0,1951.0,5175717.0,
893.0,1613.0,2012.0,1953.0,5175721.0,
893.0,1615.0,2011.0,1952.0,5175725.0,
892.0,1614.0,2013.0,1953.0,5175728.0,
893.0,1614.0,2011.0,1957.0,5175732.0,
892.0,1613.0,2014.0,1957.0,5175735.0,
892.0,1614.0,2013.0,1957.0,5175739.0,
893.0,1614.0,2012.0,1958.0,5175743.0,
894.0,1616.0,2012.0,1960.0,5175746.0,
892.0,1615.0,2013.0,1961.0,5175750.0,
891.0,1613.0,2012.0,1967.0,5175754.0,
892.0,1613.0,2009.0,1967.0,5175757.0,
893.0,1616.0,2011.0,1970.0,5175761.0,
895.0,1612.0,2010.0,1974.0,5175764.0,
892.0,1614.0,2009.0,1980.0,5175768.0,
891.0,1613.0,2009.0,1981.0,5175772.0,
892.0,1615.0,2009.0,1985.0,5175775.0,
893.0,1617.0,2009.0,1987.0,5175779.0,
896.0,1615.0,2009.0,1990.0,5175783.0,
891.0,1615.0,2011.0,1993.0,5175786.0,
891.0,1619.0,2014.0,1993.0,5175790.0,
891.0,1615.0,2016.0,1994.0,5175794.0,
891.0,1614.0,2016.0,1995.0,5175797.0,
892.0,1614.0,2017.0,2002.0,5175801.0,
889.0,1617.0,2018.0,2000.0,5175804.0,
893.0,1614.0,2021.0,2000.0,5175808.0,
895.0,1614.0,2021.0,2004.0,5175812.0,
892.0,1616.0,2027.0,2008.0,5175815.0,
891.0,1614.0,2027.0,2013.0,5175819.0,
891.0,1614.0,2032.0,2018.0,5175823.0,
892.0,1614.0,2034.0,2023.0,5175826.0,
892.0,1614.0,2037.0,2030.0,5175830.0,
892.0,1616.0,2044.0,2037.0,5175834.0,
890.0,1615.0,2047.0,2044.0,5175837.0,
889.0,1611.0,2052.0,2046.0,5175841.0,
890.0,1616.0,2056.0,2056.0,5175844.0,
890.0,1616.0,2064.0,2062.0,5175848.0,
891.0,1614.0,2063.0,2066.0,5175852.0,
891.0,1614.0,2073.0,2071.0,5175855.0,
893.0,1615.0,2078.0,2076.0,5175859.0,
890.0,1615.0,2085.0,2078.0,5175863.0,
891.0,1615.0,2090.0,2079.0,5175866.0,
890.0,1614.0,2094.0,2078.0,5175870.0,
889.0,1614.0,2100.0,2080.0,5175873.0,
891.0,1616.0,2104.0,2084.0,5175877.0,
890.0,1613.0,2109.0,2084.0,5175881.0,
891.0,1615.0,2112.0,2091.0,5175884.0,
891.0,1614.0,2119.0,2085.0,5175888.0,
891.0,1615.0,2123.0,2087.0,5175892.0,
889.0,1614.0,2124.0,2090.0,5175895.0,
889.0,1616.0,2128.0,2093.0,5175899.0,
890.0,1614.0,2129.0,2095.0,5175903.0,
890.0,1614.0,2128.0,2099.0,5175906.0,
891.0,1614.0,2133.0,2105.0,5175910.0,
891.0,1615.0,2132.0,2106.0,5175913.0,
891.0,1615.0,2135.0,2107.0,5175917.0,
891.0,1615.0,2134.0,2110.0,5175921.0,
884.0,1614.0,2132.0,2110.0,5175924.0,
891.0,1615.0,2133.0,2111.0,5175928.0,
889.0,1614.0,2135.0,2110.0,5175932.0,
889.0,1614.0,2131.0,2110.0,5175935.0,
891.0,1611.0,2129.0,2106.0,5175939.0,
891.0,1614.0,2130.0,2108.0,5175943.0,
890.0,1615.0,2131.0,2106.0,5175946.0,
889.0,1615.0,2131.0,2108.0,5175950.0,
890.0,1613.0,2131.0,2108.0,5175953.0,
885.0,1614.0,2129.0,2104.0,5175957.0,
889.0,1615.0,2127.0,2105.0,5175961.0,
890.0,1613.0,2121.0,2105.0,5175964.0,
889.0,1615.0,2125.0,2104.0,5175968.0,
889.0,1613.0,2121.0,2105.0,5175972.0,
887.0,1617.0,2119.0,2100.0,5175975.0,
889.0,1616.0,2119.0,2100.0,5175979.0,
890.0,1615.0,2117.0,2097.0,5175982.0,
889.0,1615.0,2118.0,2091.0,5175986.0,
889.0,1614.0,2113.0,2085.0,5175990.0,
889.0,1613.0,2114.0,2079.0,5175993.0,
889.0,1615.0,2110.0,2073.0,5175997.0,
889.0,1614.0,2113.0,2070.0,5176001.0,
888.0,1614.0,2120.0,2061.0,5176004.0,
889.0,1615.0,2112.0,2058.0,5176008.0,
890.0,1614.0,2111.0,2053.0,5176012.0,
886.0,1614.0,2113.0,2051.0,5176015.0,
888.0,1614.0,2108.0,2044.0,5176019.0,
889.0,1614.0,2107.0,2042.0,5176022.0,
889.0,1614.0,2106.0,2038.0,5176026.0,
889.0,1615.0,2103.0,2034.0,5176030.0,
891.0,1614.0,2107.0,2032.0,5176033.0,
889.0,1613.0,2100.0,2025.0,5176037.0,
888.0,1613.0,2097.0,2035.0,5176041.0,
890.0,1614.0,2094.0,2030.0,5176044.0,
888.0,1613.0,2096.0,2033.0,5176048.0,
888.0,1615.0,2093.0,2031.0,5176052.0,
885.0,1615.0,2095.0,2032.0,5176055.0,
889.0,1615.0,2091.0,2031.0,5176059.0,
888.0,1614.0,2091.0,2029.0,5176062.0,
888.0,1616.0,2087.0,2028.0,5176066.0,
888.0,1615.0,2085.0,2030.0,5176070.0,
889.0,1614.0,2085.0,2025.0,5176073.0,
888.0,1616.0,2088.0,2022.0,5176077.0,
889.0,1617.0,2088.0,2019.0,5176081.0,
889.0,1615.0,2086.0,2016.0,5176084.0,
889.0,1614.0,2087.0,2014.0,5176088.0,
891.0,1615.0,2086.0,2010.0,5176092.0,
888.0,1615.0,2090.0,2008.0,5176095.0,
888.0,1616.0,2086.0,2005.0,5176099.0,
889.0,1617.0,2086.0,2008.0,5176102.0,
888.0,1614.0,2086.0,2003.0,5176106.0,
889.0,1614.0,2089.0,2001.0,5176110.0,
889.0,1613.0,2089.0,1998.0,5176113.0,
887.0,1615.0,2089.0,2000.0,5176117.0,
889.0,1615.0,2090.0,1995.0,5176121.0,
888.0,1616.0,2089.0,1993.0,5176124.0,
889.0,1614.0,2091.0,1986.0,5176128.0,
888.0,1616.0,2090.0,1990.0,5176131.0,
887.0,1613.0,2091.0,1989.0,5176135.0,
888.0,1614.0,2093.0,1989.0,5176139.0,
887.0,1615.0,2092.0,1994.0,5176142.0,
886.0,1615.0,2092.0,1993.0,5176146.0,
887.0,1616.0,2092.0,1996.0,5176150.0,
887.0,1615.0,2090.0,1997.0,5176153.0,
887.0,1615.0,2091.0,1996.0,5176157.0,
888.0,1615.0,2089.0,1996.0,5176161.0,
886.0,1616.0,2089.0,1999.0,5176164.0,
887.0,1616.0,2087.0,1996.0,5176168.0,
887.0,1615.0,2086.0,1996.0,5176171.0,
886.0,1615.0,2083.0,1995.0,5176175.0,
886.0,1617.0,2084.0,1996.0,5176179.0,
887.0,1615.0,2083.0,1994.0,5176182.0,
886.0,1614.0,2082.0,1992.0,5176186.0,
885.0,1613.0,2078.0,1991.0,5176190.0,
886.0,1615.0,2081.0,1990.0,5176193.0,
887.0,1615.0,2078.0,1984.0,5176197.0,
886.0,1616.0,2075.0,1991.0,5176201.0,
886.0,1614.0,2074.0,1993.0,5176204.0,
886.0,1617.0,2072.0,1994.0,5176208.0,
885.0,1616.0,2071.0,1984.0,5176211.0,
886.0,1616.0,2072.0,1992.0,5176215.0,
886.0,1615.0,2074.0,1990.0,5176219.0,
886.0,1620.0,2072.0,1991.0,5176222.0,
882.0,1614.0,2074.0,1994.0,5176226.0,
882.0,1617.0,2073.0,1994.0,5176230.0,
886.0,1615.0,2074.0,1994.0,5176233.0,
886.0,1615.0,2076.0,1995.0,5176237.0,
884.0,1615.0,2074.0,1997.0,5176240.0,
885.0,1616.0,2077.0,1997.0,5176244.0,
883.0,1614.0,2078.0,1997.0,5176248.0,
885.0,1614.0,2074.0,2000.0,5176251.0,
885.0,1612.0,2074.0,1995.0,5176255.0,
885.0,1614.0,2074.0,1999.0,5176259.0,
884.0,1611.0,2072.0,1999.0,5176262.0,
886.0,1610.0,2072.0,1995.0,5176266.0,
885.0,1612.0,2072.0,1990.0,5176270.0,
885.0,1618.0,2067.0,1989.0,5176273.0,
885.0,1614.0,2072.0,1990.0,5176277.0,
885.0,1615.0,2072.0,1989.0,5176280.0,
884.0,1614.0,2068.0,1985.0,5176284.0,
884.0,1614.0,2072.0,1985.0,5176288.0,
885.0,1616.0,2071.0,1981.0,5176291.0,
884.0,1613.0,2072.0,1982.0,5176295.0,
884.0,1613.0,2073.0,1979.0,5176299.0,
884.0,1613.0,2075.0,1977.0,5176302.0,
886.0,1614.0,2074.0,1977.0,5176306.0,
884.0,1614.0,2074.0,1973.0,5176310.0,
884.0,1615.0,2076.0,1977.0,5176313.0,
884.0,1615.0,2078.0,1972.0,5176317.0,
884.0,1614.0,2076.0,1973.0,5176320.0,
884.0,1614.0,2076.0,1972.0,5176324.0,
887.0,1615.0,2077.0,1968.0,5176328.0,
883.0,1615.0,2073.0,1974.0,5176331.0,
883.0,1614.0,2075.0,1971.0,5176335.0,
886.0,1616.0,2075.0,1975.0,5176339.0,
885.0,1615.0,2076.0,1973.0,5176342.0,
883.0,1618.0,2072.0,1975.0,5176346.0,
882.0,1615.0,2078.0,1975.0,5176349.0,
883.0,1614.0,2071.0,1974.0,5176353.0,
884.0,1617.0,2070.0,1974.0,5176357.0,
885.0,1614.0,2070.0,1975.0,5176360.0,
883.0,1616.0,2072.0,1972.0,5176364.0,
883.0,1609.0,2069.0,1972.0,5176368.0,
883.0,1614.0,2068.0,1974.0,5176371.0,
882.0,1614.0,2067.0,1971.0,5176375.0,
883.0,1614.0,2066.0,1974.0,5176379.0,
883.0,1615.0,2065.0,1975.0,5176382.0,
883.0,1615.0,2067.0,1976.0,5176386.0,
884.0,1614.0,2066.0,1973.0,5176389.0,
883.0,1615.0,2066.0,1976.0,5176393.0,
882.0,1614.0,2066.0,1975.0,5176397.0,
882.0,1615.0,2067.0,1975.0,5176400.0,
883.0,1615.0,2065.0,1976.0,5176404.0,
882.0,1614.0,2067.0,1976.0,5176408.0,
885.0,1614.0,2064.0,1980.0,5176411.0,
882.0,1614.0,2067.0,1982.0,5176415.0,
884.0,1615.0,2066.0,1985.0,5176419.0,
883.0,1614.0,2064.0,1990.0,5176422.0,
881.0,1615.0,2067.0,1989.0,5176426.0,
883.0,1613.0,2070.0,1988.0,5176429.0,
882.0,1614.0,2070.0,1988.0,5176433.0,
883.0,1614.0,2070.0,1985.0,5176437.0,
882.0,1616.0,2068.0,1987.0,5176440.0,
882.0,1614.0,2067.0,1988.0,5176444.0,
882.0,1613.0,2066.0,1998.0,5176448.0,
884.0,1613.0,2067.0,1987.0,5176451.0,
881.0,1615.0,2061.0,1988.0,5176455.0,
881.0,1615.0,2066.0,1989.0,5176459.0,
882.0,1615.0,2062.0,1988.0,5176462.0,
882.0,1613.0,2061.0,1985.0,5176466.0,
883.0,1614.0,2065.0,1984.0,5176469.0,
882.0,1611.0,2064.0,1980.0,5176473.0,
882.0,1614.0,2066.0,1980.0,5176477.0,
881.0,1612.0,2069.0,1974.0,5176480.0,
882.0,1615.0,2067.0,1975.0,5176484.0,
881.0,1613.0,2070.0,1969.0,5176488.0,
882.0,1616.0,2069.0,1968.0,5176491.0,
879.0,1615.0,2071.0,1966.0,5176495.0,
880.0,1612.0,2070.0,1965.0,5176498.0,
880.0,1614.0,2069.0,1966.0,5176502.0,
881.0,1613.0,2073.0,1966.0,5176506.0,
880.0,1614.0,2072.0,1970.0,5176509.0,
881.0,1614.0,2072.0,1973.0,5176513.0,
881.0,1616.0,2071.0,1972.0,5176517.0,
880.0,1613.0,2072.0,1974.0,5176520.0,
880.0,1614.0,2071.0,1978.0,5176524.0,
881.0,1613.0,2071.0,1976.0,5176528.0,
881.0,1614.0,2070.0,1981.0,5176531.0,
880.0,1614.0,2070.0,1982.0,5176535.0,
880.0,1615.0,2069.0,1989.0,5176538.0,
880.0,1614.0,2065.0,1985.0,5176542.0,
881.0,1614.0,2063.0,1984.0,5176546.0,
881.0,1615.0,2063.0,1985.0,5176549.0,
880.0,1614.0,2061.0,1985.0,5176553.0,
881.0,1614.0,2057.0,1986.0,5176557.0,
880.0,1611.0,2052.0,1985.0,5176560.0,
880.0,1614.0,2049.0,1988.0,5176564.0,
879.0,1614.0,2048.0,1990.0,5176568.0,
879.0,1615.0,2047.0,1988.0,5176571.0,
880.0,1614.0,2039.0,1993.0,5176575.0,
879.0,1616.0,2037.0,1992.0,5176578.0,
880.0,1613.0,2033.0,1997.0,5176582.0,
879.0,1614.0,2031.0,1999.0,5176586.0,
879.0,1615.0,2029.0,2003.0,5176589.0,
879.0,1617.0,2026.0,2008.0,5176593.0,
879.0,1614.0,2024.0,2011.0,5176597.0,
880.0,1615.0,2025.0,2015.0,5176600.0,
877.0,1615.0,2025.0,2022.0,5176604.0,
881.0,1616.0,2023.0,2025.0,5176607.0,
878.0,1616.0,2026.0,2028.0,5176611.0,
879.0,1616.0,2029.0,2035.0,5176615.0,
879.0,1615.0,2029.0,2042.0,5176618.0,
880.0,1616.0,2035.0,2049.0,5176622.0,
879.0,1617.0,2036.0,2053.0,5176626.0,
878.0,1617.0,2038.0,2057.0,5176629.0,
879.0,1617.0,2041.0,2062.0,5176633.0,
878.0,1616.0,2042.0,2065.0,5176637.0,
877.0,1616.0,2045.0,2068.0,5176640.0,
881.0,1616.0,2049.0,2070.0,5176644.0,
878.0,1615.0,2051.0,2072.0,5176647.0,
880.0,1615.0,2056.0,2076.0,5176651.0,
878.0,1617.0,2062.0,2078.0,5176655.0,
878.0,1617.0,2066.0,2078.0,5176658.0,
878.0,1617.0,2070.0,2084.0,5176662.0,
878.0,1614.0,2074.0,2083.0,5176666.0,
878.0,1618.0,2079.0,2086.0,5176669.0,
878.0,1617.0,2082.0,2085.0,5176673.0,
885.0,1618.0,2086.0,2085.0,5176677.0,
879.0,1621.0,2091.0,2090.0,5176680.0,
877.0,1618.0,2095.0,2093.0,5176684.0,
877.0,1617.0,2101.0,2093.0,5176687.0,
879.0,1620.0,2106.0,2097.0,5176691.0,
877.0,1617.0,2106.0,2100.0,5176695.0,
877.0,1616.0,2109.0,2100.0,5176698.0,
877.0,1618.0,2114.0,2101.0,5176702.0,
877.0,1617.0,2118.0,2105.0,5176706.0,
876.0,1619.0,2125.0,2104.0,5176709.0,
877.0,1616.0,2124.0,2107.0,5176713.0,
876.0,1618.0,2129.0,2104.0,5176717.0,
876.0,1623.0,2133.0,2106.0,5176720.0,
877.0,1618.0,2142.0,2108.0,5176724.0,
876.0,1618.0,2141.0,2104.0,5176727.0,
876.0,1619.0,2143.0,2105.0,5176731.0,
876.0,1617.0,2147.0,2102.0,5176735.0,
877.0,1618.0,2147.0,2103.0,5176738.0,
875.0,1620.0,2151.0,2102.0,5176742.0,
875.0,1619.0,2151.0,2101.0,5176746.0,
876.0,1620.0,2153.0,2097.0,5176749.0,
875.0,1618.0,2154.0,2101.0,5176753.0,
874.0,1618.0,2154.0,2102.0,5176756.0,
873.0,1619.0,2156.0,2098.0,5176760.0,
875.0,1621.0,2154.0,2098.0,5176764.0,
873.0,1621.0,2153.0,2095.0,5176767.0,
874.0,1617.0,2152.0,2092.0,5176771.0,
875.0,1620.0,2153.0,2089.0,5176775.0,
875.0,1620.0,2149.0,2087.0,5176778.0,
875.0,1621.0,2149.0,2080.0,5176782.0,
874.0,1620.0,2146.0,2081.0,5176786.0,
873.0,1620.0,2144.0,2081.0,5176789.0,
873.0,1619.0,2143.0,2080.0,5176793.0,
874.0,1620.0,2143.0,2081.0,5176796.0,
873.0,1620.0,2143.0,2078.0,5176800.0,
874.0,1619.0,2144.0,2077.0,5176804.0,
875.0,1622.0,2140.0,2075.0,5176807.0,
873.0,1618.0,2140.0,2073.0,5176811.0,
872.0,1619.0,2137.0,2073.0,5176815.0,
882.0,1620.0,2136.0,2065.0,5176818.0,
875.0,1619.0,2135.0,2067.0,5176822.0,
873.0,1620.0,2135.0,2064.0,5176826.0,
873.0,1623.0,2133.0,2068.0,5176829.0,
873.0,1620.0,2131.0,2067.0,5176833.0,
873.0,1622.0,2129.0,2070.0,5176836.0,
869.0,1621.0,2131.0,2071.0,5176840.0,
872.0,1620.0,2127.0,2071.0,5176844.0,
873.0,1619.0,2128.0,2075.0,5176847.0,
872.0,1618.0,2126.0,2072.0,5176851.0,
872.0,1620.0,2126.0,2069.0,5176855.0,
873.0,1618.0,2124.0,2066.0,5176858.0,
873.0,1621.0,2123.0,2066.0,5176862.0,
872.0,1620.0,2125.0,2064.0,5176865.0,
873.0,1623.0,2121.0,2062.0,5176869.0,
872.0,1620.0,2121.0,2060.0,5176873.0,
872.0,1620.0,2121.0,2057.0,5176876.0,
871.0,1620.0,2119.0,2056.0,5176880.0,
872.0,1618.0,2119.0,2052.0,5176884.0,
872.0,1621.0,2121.0,2052.0,5176887.0,
872.0,1620.0,2116.0,2043.0,5176891.0,
869.0,1619.0,2118.0,2047.0,5176895.0,
872.0,1621.0,2118.0,2041.0,5176898.0,
873.0,1620.0,2116.0,2038.0,5176902.0,
872.0,1620.0,2116.0,2035.0,5176905.0,
870.0,1619.0,2114.0,2030.0,5176909.0,
877.0,1620.0,2115.0,2026.0,5176913.0,
872.0,1620.0,2112.0,2025.0,5176916.0,
871.0,1617.0,2112.0,2016.0,5176920.0,
871.0,1619.0,2112.0,2023.0,5176924.0,
871.0,1626.0,2112.0,2025.0,5176927.0,
870.0,1620.0,2107.0,2026.0,5176931.0,
877.0,1620.0,2104.0,2026.0,5176935.0,
870.0,1619.0,2102.0,2025.0,5176938.0,
870.0,1620.0,2099.0,2026.0,5176942.0,
871.0,1620.0,2097.0,2023.0,5176945.0,
869.0,1620.0,2091.0,2023.0,5176949.0,
870.0,1621.0,2091.0,2025.0,5176953.0,
869.0,1621.0,2089.0,2021.0,5176956.0,
870.0,1622.0,2092.0,2024.0,5176960.0,
870.0,1619.0,2090.0,2020.0,5176964.0,
869.0,1620.0,2091.0,2027.0,5176967.0,
868.0,1618.0,2093.0,2030.0,5176971.0,
869.0,1620.0,2092.0,2025.0,5176974.0,
870.0,1620.0,2090.0,2023.0,5176978.0,
867.0,1621.0,2094.0,2020.0,5176982.0,
868.0,1619.0,2090.0,2015.0,5176985.0,
868.0,1621.0,2092.0,2018.0,5176989.0,
869.0,1619.0,2093.0,2012.0,5176993.0,
868.0,1622.0,2092.0,2011.0,5176996.0,
868.0,1621.0,2095.0,2010.0,5177000.0,
868.0,1622.0,2095.0,2013.0,5177004.0,
868.0,1618.0,2097.0,2008.0,5177007.0,
868.0,1620.0,2097.0,2010.0,5177011.0,
867.0,1620.0,2097.0,2008.0,5177014.0,
867.0,1622.0,2098.0,2005.0,5177018.0,
867.0,1622.0,2095.0,2002.0,5177022.0,
867.0,1620.0,2095.0,2002.0,5177025.0,
867.0,1621.0,2093.0,2000.0,5177029.0,
866.0,1621.0,2092.0,1995.0,5177033.0,
867.0,1620.0,2091.0,1995.0,5177036.0,
868.0,1621.0,2091.0,1994.0,5177040.0,
867.0,1622.0,2090.0,1991.0,5177044.0,
868.0,1618.0,2091.0,1989.0,5177047.0,
867.0,1621.0,2088.0,1988.0,5177051.0,
866.0,1620.0,2089.0,1985.0,5177054.0,
865.0,1618.0,2088.0,1988.0,5177058.0,
866.0,1620.0,2089.0,1989.0,5177062.0,
866.0,1620.0,2087.0,1988.0,5177065.0,
866.0,1620.0,2085.0,1992.0,5177069.0,
866.0,1621.0,2082.0,1992.0,5177073.0,
866.0,1622.0,2080.0,1993.0,5177076.0,
866.0,1621.0,2079.0,1993.0,5177080.0,
865.0,1621.0,2077.0,1993.0,5177084.0,
865.0,1619.0,2080.0,1992.0,5177087.0,
865.0,1622.0,2078.0,1992.0,5177091.0,
866.0,1622.0,2076.0,1988.0,5177094.0,
864.0,1620.0,2072.0,1987.0,5177098.0,
865.0,1620.0,2073.0,1987.0,5177102.0,
864.0,1622.0,2071.0,1991.0,5177105.0,
864.0,1621.0,2069.0,1988.0,5177109.0,
865.0,1621.0,2068.0,1996.0,5177113.0,
864.0,1619.0,2064.0,1990.0,5177116.0,
867.0,1620.0,2063.0,1992.0,5177120.0,
865.0,1620.0,2065.0,1987.0,5177123.0,
864.0,1620.0,2060.0,1987.0,5177127.0,
864.0,1620.0,2059.0,1987.0,5177131.0,
863.0,1618.0,2057.0,1982.0,5177134.0,
864.0,1621.0,2055.0,1982.0,5177138.0,
864.0,1620.0,2052.0,1981.0,5177142.0,
864.0,1621.0,2050.0,1982.0,5177145.0,
864.0,1621.0,2050.0,1982.0,5177149.0,
863.0,1620.0,2049.0,1983.0,5177153.0,
863.0,1620.0,2047.0,1984.0,5177156.0,
863.0,1620.0,2049.0,1984.0,5177160.0,
862.0,1618.0,2047.0,1975.0,5177163.0,
863.0,1620.0,2045.0,1984.0,5177167.0,
864.0,1621.0,2045.0,1984.0,5177171.0,
865.0,1621.0,2046.0,1985.0,5177174.0,
861.0,1619.0,2043.0,1978.0,5177178.0,
863.0,1616.0,2044.0,1985.0,5177182.0,
863.0,1620.0,2043.0,1985.0,5177185.0,
863.0,1620.0,2042.0,1984.0,5177189.0,
865.0,1622.0,2040.0,1984.0,5177193.0,
863.0,1621.0,2038.0,1983.0,5177196.0,
862.0,1619.0,2039.0,1984.0,5177200.0,
862.0,1620.0,2037.0,1983.0,5177203.0,
861.0,1621.0,2038.0,1981.0,5177207.0,
862.0,1621.0,2035.0,1980.0,5177211.0,
861.0,1619.0,2038.0,1976.0,5177214.0,
861.0,1620.0,2038.0,1974.0,5177218.0,
861.0,1619.0,2036.0,1971.0,5177222.0,
860.0,1619.0,2037.0,1971.0,5177225.0,
861.0,1619.0,2037.0,1970.0,5177229.0,
861.0,1620.0,2038.0,1971.0,5177233.0,
862.0,1621.0,2037.0,1971.0,5177236.0,
860.0,1619.0,2041.0,1975.0,5177240.0,
862.0,1619.0,2038.0,1976.0,5177243.0,
857.0,1618.0,2040.0,1977.0,5177247.0,
859.0,1621.0,2040.0,1976.0,5177251.0,
860.0,1622.0,2040.0,1977.0,5177254.0,
861.0,1620.0,2038.0,1976.0,5177258.0,
861.0,1620.0,2033.0,1977.0,5177262.0,
859.0,1619.0,2038.0,1980.0,5177265.0,
861.0,1619.0,2037.0,1977.0,5177269.0,
859.0,1625.0,2036.0,1977.0,5177272.0,
860.0,1619.0,2036.0,1976.0,5177276.0,
859.0,1619.0,2035.0,1975.0,5177280.0,
860.0,1620.0,2033.0,1974.0,5177283.0,
859.0,1618.0,2034.0,1972.0,5177287.0,
859.0,1623.0,2034.0,1971.0,5177291.0,
860.0,1620.0,2030.0,1969.0,5177294.0,
860.0,1622.0,2030.0,1968.0,5177298.0,
859.0,1618.0,2029.0,1972.0,5177302.0,
859.0,1617.0,2028.0,1971.0,5177305.0,
859.0,1620.0,2028.0,1968.0,5177309.0,
860.0,1619.0,2031.0,1967.0,5177312.0,
853.0,1619.0,2027.0,1971.0,5177316.0,
859.0,1619.0,2027.0,1967.0,5177320.0,
859.0,1619.0,2026.0,1966.0,5177323.0,
859.0,1619.0,2023.0,1966.0,5177327.0,
854.0,1617.0,2020.0,1970.0,5177331.0,
861.0,1619.0,2019.0,1968.0,5177334.0,
859.0,1617.0,2017.0,1968.0,5177338.0,
859.0,1619.0,2017.0,1972.0,5177342.0,
859.0,1619.0,2016.0,1969.0,5177345.0,
859.0,1619.0,2015.0,1973.0,5177349.0,
858.0,1620.0,2015.0,1972.0,5177352.0,
859.0,1619.0,2011.0,1973.0,5177356.0,
858.0,1620.0,2012.0,1974.0,5177360.0,
858.0,1618.0,2010.0,1974.0,5177363.0,
858.0,1618.0,2009.0,1970.0,5177367.0,
857.0,1619.0,2007.0,1969.0,5177371.0,
858.0,1619.0,2007.0,1976.0,5177374.0,
858.0,1621.0,2005.0,1970.0,5177378.0,
858.0,1620.0,2003.0,1973.0,5177381.0,
859.0,1620.0,2002.0,1977.0,5177385.0,
859.0,1620.0,2002.0,1980.0,5177389.0,
858.0,1619.0,2001.0,1983.0,5177392.0,
858.0,1621.0,2000.0,1988.0,5177396.0,
855.0,1620.0,1997.0,1994.0,5177400.0,
858.0,1620.0,1995.0,1999.0,5177403.0,
857.0,1620.0,1998.0,2003.0,5177407.0,
857.0,1621.0,1994.0,2007.0,5177411.0,
858.0,1620.0,1995.0,2009.0,5177414.0,
857.0,1621.0,1999.0,2016.0,5177418.0,
856.0,1621.0,2000.0,2021.0,5177421.0,
857.0,1620.0,1997.0,2024.0,5177425.0,
856.0,1622.0,1999.0,2036.0,5177429.0,
858.0,1621.0,2001.0,2045.0,5177432.0,
858.0,1622.0,2002.0,2053.0,5177436.0,
857.0,1621.0,2001.0,2059.0,5177440.0,
857.0,1623.0,2004.0,2064.0,5177443.0,
856.0,1624.0,2005.0,2067.0,5177447.0,
856.0,1622.0,2007.0,2073.0,5177451.0,
856.0,1622.0,2010.0,2078.0,5177454.0,
856.0,1622.0,2012.0,2079.0,5177458.0,
856.0,1621.0,2015.0,2079.0,5177461.0,
853.0,1621.0,2019.0,2082.0,5177465.0,
857.0,1622.0,2023.0,2082.0,5177469.0,
857.0,1622.0,2027.0,2083.0,5177472.0,
853.0,1622.0,2032.0,2083.0,5177476.0,
856.0,1623.0,2034.0,2081.0,5177480.0,
861.0,1621.0,2040.0,2083.0,5177483.0,
856.0,1623.0,2041.0,2086.0,5177487.0,
855.0,1622.0,2043.0,2091.0,5177490.0,
855.0,1623.0,2047.0,2094.0,5177494.0,
854.0,1622.0,2050.0,2096.0,5177498.0,
856.0,1622.0,2050.0,2105.0,5177501.0,
854.0,1620.0,2055.0,2106.0,5177505.0,
861.0,1622.0,2058.0,2109.0,5177509.0,
856.0,1623.0,2059.0,2111.0,5177512.0,
855.0,1624.0,2063.0,2111.0,5177516.0,
856.0,1621.0,2066.0,2111.0,5177520.0,
855.0,1627.0,2068.0,2114.0,5177523.0,
855.0,1622.0,2070.0,2112.0,5177527.0,
855.0,1623.0,2080.0,2111.0,5177530.0,
855.0,1621.0,2077.0,2114.0,5177534.0,
854.0,1620.0,2080.0,2110.0,5177538.0,
850.0,1622.0,2083.0,2108.0,5177541.0,
855.0,1622.0,2084.0,2108.0,5177545.0,
855.0,1623.0,2084.0,2109.0,5177549.0,
854.0,1626.0,2085.0,2108.0,5177552.0,
854.0,1622.0,2086.0,2109.0,5177556.0,
854.0,1623.0,2084.0,2107.0,5177560.0,
854.0,1621.0,2084.0,2109.0,5177563.0,
853.0,1622.0,2086.0,2106.0,5177567.0,
851.0,1622.0,2086.0,2106.0,5177570.0,
854.0,1621.0,2088.0,2105.0,5177574.0,
856.0,1623.0,2089.0,2103.0,5177578.0,
854.0,1622.0,2088.0,2103.0,5177581.0,
854.0,1623.0,2089.0,2101.0,5177585.0,
855.0,1621.0,2087.0,2100.0,5177589.0,
853.0,1622.0,2088.0,2098.0,5177592.0,
855.0,1622.0,2086.0,2095.0,5177596.0,
853.0,1623.0,2086.0,2093.0,5177600.0,
853.0,1619.0,2080.0,2094.0,5177603.0,
854.0,1622.0,2079.0,2094.0,5177607.0,
853.0,1621.0,2075.0,2094.0,5177610.0,
850.0,1621.0,2076.0,2096.0,5177614.0,
854.0,1621.0,2074.0,2093.0,5177618.0,
854.0,1621.0,2073.0,2092.0,5177621.0,
852.0,1621.0,2070.0,2090.0,5177625.0,
853.0,1621.0,2070.0,2087.0,5177629.0,
852.0,1621.0,2065.0,2086.0,5177632.0,
852.0,1619.0,2066.0,2084.0,5177636.0,
851.0,1621.0,2063.0,2085.0,5177639.0,
852.0,1621.0,2063.0,2081.0,5177643.0,
851.0,1620.0,2062.0,2079.0,5177647.0,
851.0,1621.0,2060.0,2074.0,5177650.0,
849.0,1622.0,2062.0,2071.0,5177654.0,
850.0,1622.0,2058.0,2071.0,5177658.0,
852.0,1620.0,2057.0,2071.0,5177661.0,
851.0,1622.0,2056.0,2068.0,5177665.0,
849.0,1622.0,2055.0,2066.0,5177669.0,
852.0,1620.0,2056.0,2063.0,5177672.0,
851.0,1623.0,2059.0,2061.0,5177676.0,
852.0,1623.0,2057.0,2056.0,5177679.0,
851.0,1621.0,2057.0,2056.0,5177683.0,
856.0,1621.0,2058.0,2054.0,5177687.0,
850.0,1621.0,2057.0,2051.0,5177690.0,
849.0,1620.0,2058.0,2051.0,5177694.0,
850.0,1620.0,2057.0,2046.0,5177698.0,
850.0,1621.0,2064.0,2047.0,5177701.0,
850.0,1622.0,2059.0,2048.0,5177705.0,
848.0,1621.0,2056.0,2047.0,5177709.0,
849.0,1622.0,2054.0,2047.0,5177712.0,
849.0,1620.0,2058.0,2046.0,5177716.0,
851.0,1621.0,2061.0,2044.0,5177719.0,
849.0,1620.0,2058.0,2044.0,5177723.0,
851.0,1618.0,2060.0,2041.0,5177727.0,
849.0,1625.0,2058.0,2047.0,5177730.0,
850.0,1620.0,2060.0,2043.0,5177734.0,
849.0,1620.0,2056.0,2051.0,5177738.0,
849.0,1620.0,2056.0,2047.0,5177741.0,
849.0,1621.0,2056.0,2051.0,5177745.0,
849.0,1620.0,2055.0,2051.0,5177748.0,
848.0,1622.0,2062.0,2051.0,5177752.0,
849.0,1620.0,2057.0,2053.0,5177756.0,
850.0,1619.0,2056.0,2053.0,5177759.0,
849.0,1621.0,2057.0,2056.0,5177763.0,
848.0,1620.0,2058.0,2054.0,5177767.0,
848.0,1621.0,2057.0,2059.0,5177770.0,
847.0,1619.0,2059.0,2060.0,5177774.0,
848.0,1620.0,2058.0,2061.0,5177778.0,
849.0,1620.0,2055.0,2061.0,5177781.0,
846.0,1620.0,2053.0,2062.0,5177785.0,
848.0,1620.0,2055.0,2059.0,5177788.0,
848.0,1619.0,2055.0,2057.0,5177792.0,
849.0,1622.0,2054.0,2058.0,5177796.0,
845.0,1617.0,2052.0,2053.0,5177799.0,
848.0,1614.0,2050.0,2046.0,5177803.0,
848.0,1620.0,2050.0,2039.0,5177807.0,
847.0,1622.0,2048.0,2037.0,5177810.0,
847.0,1619.0,2044.0,2030.0,5177814.0,
847.0,1618.0,2044.0,2022.0,5177818.0,
847.0,1619.0,2044.0,2017.0,5177821.0,
847.0,1619.0,2040.0,2010.0,5177825.0,
847.0,1615.0,2039.0,2007.0,5177828.0,
846.0,1620.0,2039.0,2005.0,5177832.0,
842.0,1618.0,2037.0,1999.0,5177836.0,
847.0,1619.0,2036.0,1993.0,5177839.0,
845.0,1618.0,2034.0,1987.0,5177843.0,
846.0,1624.0,2034.0,1986.0,5177847.0,
845.0,1621.0,2032.0,1981.0,5177850.0,
846.0,1617.0,2034.0,1980.0,5177854.0,
847.0,1618.0,2030.0,1969.0,5177858.0,
846.0,1618.0,2030.0,1974.0,5177861.0,
847.0,1622.0,2027.0,1975.0,5177865.0,
847.0,1622.0,2026.0,1975.0,5177868.0,
846.0,1620.0,2025.0,1974.0,5177872.0,
846.0,1618.0,2025.0,1974.0,5177876.0,
851.0,1619.0,2025.0,1975.0,5177879.0,
846.0,1617.0,2023.0,1975.0,5177883.0,
845.0,1618.0,2022.0,1974.0,5177887.0,
845.0,1618.0,2018.0,1979.0,5177890.0,
852.0,1619.0,2020.0,1977.0,5177894.0,
847.0,1618.0,2017.0,1980.0,5177897.0,
846.0,1617.0,2015.0,1979.0,5177901.0,
844.0,1618.0,2017.0,1987.0,5177905.0,
845.0,1618.0,2016.0,1986.0,5177908.0,
846.0,1617.0,2008.0,1987.0,5177912.0,
844.0,1619.0,2011.0,1992.0,5177916.0,
844.0,1615.0,2008.0,1989.0,5177919.0,
843.0,1616.0,2006.0,1989.0,5177923.0,
844.0,1619.0,2002.0,1987.0,5177927.0,
844.0,1616.0,2004.0,1987.0,5177930.0,
843.0,1618.0,2006.0,1987.0,5177934.0,
844.0,1617.0,2002.0,1986.0,5177937.0,
845.0,1618.0,2003.0,1983.0,5177941.0,
843.0,1616.0,2005.0,1983.0,5177945.0,
844.0,1618.0,2006.0,1984.0,5177948.0,
844.0,1616.0,2007.0,1984.0,5177952.0,
844.0,1618.0,2007.0,1984.0,5177956.0,
842.0,1617.0,2006.0,1982.0,5177959.0,
844.0,1617.0,2005.0,1984.0,5177963.0,
842.0,1616.0,2008.0,1992.0,5177967.0,
843.0,1616.0,2008.0,1987.0,5177970.0,
843.0,1615.0,2009.0,1987.0,5177974.0,
843.0,1617.0,2011.0,1988.0,5177977.0,
842.0,1616.0,2011.0,1986.0,5177981.0,
842.0,1615.0,2007.0,1988.0,5177985.0,
842.0,1617.0,2010.0,1987.0,5177988.0,
842.0,1616.0,2007.0,1989.0,5177992.0,
842.0,1616.0,2006.0,1989.0,5177996.0,
841.0,1615.0,2004.0,1984.0,5177999.0,
843.0,1617.0,2005.0,1988.0,5178003.0,
842.0,1618.0,2002.0,1986.0,5178006.0,
842.0,1617.0,2001.0,1985.0,5178010.0,
841.0,1617.0,1998.0,1984.0,5178014.0,
841.0,1618.0,1996.0,1980.0,5178017.0,
840.0,1616.0,1994.0,1977.0,5178021.0,
840.0,1616.0,1994.0,1977.0,5178025.0,
840.0,1618.0,1993.0,1978.0,5178028.0,
841.0,1618.0,1989.0,1978.0,5178032.0,
840.0,1617.0,1991.0,1976.0,5178036.0,
840.0,1616.0,1988.0,1972.0,5178039.0,
840.0,1615.0,1988.0,1973.0,5178043.0,
840.0,1617.0,1988.0,1970.0,5178046.0,
839.0,1617.0,1986.0,1965.0,5178050.0,
839.0,1618.0,1986.0,1964.0,5178054.0,
840.0,1622.0,1986.0,1960.0,5178057.0,
839.0,1617.0,1986.0,1958.0,5178061.0,
841.0,1616.0,1985.0,1955.0,5178065.0,
839.0,1618.0,1986.0,1956.0,5178068.0,
838.0,1616.0,1985.0,1953.0,5178072.0,
839.0,1616.0,1987.0,1951.0,5178076.0,
838.0,1617.0,1985.0,1955.0,5178079.0,
838.0,1617.0,1987.0,1955.0,5178083.0,
838.0,1616.0,1989.0,1954.0,5178086.0,
838.0,1616.0,1987.0,1957.0,5178090.0,
839.0,1613.0,1990.0,1952.0,5178094.0,
836.0,1618.0,1988.0,1960.0,5178097.0,
838.0,1616.0,1987.0,1962.0,5178101.0,
837.0,1616.0,1988.0,1960.0,5178105.0,
837.0,1618.0,1983.0,1962.0,5178108.0,
837.0,1617.0,1989.0,1964.0,5178112.0,
838.0,1616.0,1986.0,1967.0,5178115.0,
836.0,1617.0,1986.0,1971.0,5178119.0,
837.0,1618.0,1988.0,1975.0,5178123.0,
838.0,1614.0,1990.0,1977.0,5178126.0,
834.0,1616.0,1988.0,1979.0,5178130.0,
837.0,1614.0,1986.0,1984.0,5178134.0,
837.0,1615.0,1986.0,1984.0,5178137.0,
836.0,1616.0,1988.0,1984.0,5178141.0,
835.0,1614.0,1988.0,1987.0,5178145.0,
842.0,1615.0,1989.0,1988.0,5178148.0,
836.0,1615.0,1990.0,1988.0,5178152.0,
836.0,1614.0,1988.0,1986.0,5178155.0,
836.0,1613.0,1992.0,1982.0,5178159.0,
842.0,1614.0,1991.0,1985.0,5178163.0,
835.0,1615.0,1991.0,1984.0,5178166.0,
836.0,1617.0,1989.0,1985.0,5178170.0,
837.0,1613.0,1988.0,1987.0,5178174.0,
835.0,1614.0,1991.0,1988.0,5178177.0,
835.0,1614.0,1989.0,1987.0,5178181.0,
837.0,1613.0,1991.0,1989.0,5178185.0,
835.0,1614.0,1987.0,1989.0,5178188.0,
836.0,1614.0,1987.0,1992.0,5178192.0,
836.0,1614.0,1985.0,1991.0,5178195.0,
836.0,1615.0,1985.0,1997.0,5178199.0,
834.0,1614.0,1985.0,1994.0,5178203.0,
835.0,1613.0,1985.0,1996.0,5178206.0,
834.0,1614.0,1987.0,1999.0,5178210.0,
836.0,1614.0,1988.0,2002.0,5178214.0,
834.0,1615.0,1988.0,2003.0,5178217.0,
835.0,1613.0,1993.0,2008.0,5178221.0,
832.0,1613.0,1995.0,2014.0,5178225.0,
834.0,1612.0,1996.0,2012.0,5178228.0,
833.0,1613.0,1996.0,2019.0,5178232.0,
834.0,1613.0,2002.0,2021.0,5178235.0,
834.0,1614.0,2001.0,2022.0,5178239.0,
834.0,1613.0,2004.0,2027.0,5178243.0,
834.0,1614.0,2010.0,2030.0,5178246.0,
833.0,1614.0,2012.0,2026.0,5178250.0,
833.0,1612.0,2015.0,2037.0,5178254.0,
834.0,1612.0,2018.0,2038.0,5178257.0,
833.0,1613.0,2025.0,2040.0,5178261.0,
833.0,1611.0,2028.0,2044.0,5178264.0,
833.0,1613.0,2034.0,2047.0,5178268.0,
833.0,1608.0,2037.0,2051.0,5178272.0,
833.0,1613.0,2041.0,2052.0,5178275.0,
832.0,1613.0,2041.0,2056.0,5178279.0,
833.0,1612.0,2048.0,2056.0,5178283.0,
834.0,1611.0,2050.0,2061.0,5178286.0,
833.0,1613.0,2053.0,2057.0,5178290.0,
832.0,1612.0,2053.0,2068.0,5178294.0,
831.0,1611.0,2056.0,2072.0,5178297.0,
833.0,1613.0,2059.0,2076.0,5178301.0,
833.0,1612.0,2061.0,2078.0,5178304.0,
833.0,1611.0,2064.0,2076.0,5178308.0,
832.0,1611.0,2066.0,2092.0,5178312.0,
831.0,1612.0,2069.0,2096.0,5178315.0,
833.0,1612.0,2071.0,2102.0,5178319.0,
832.0,1615.0,2075.0,2107.0,5178323.0,
832.0,1611.0,2076.0,2111.0,5178326.0,
832.0,1610.0,2079.0,2115.0,5178330.0,
832.0,1613.0,2083.0,2119.0,5178334.0,
832.0,1612.0,2084.0,2121.0,5178337.0,
833.0,1612.0,2086.0,2128.0,5178341.0,
832.0,1610.0,2087.0,2127.0,5178344.0,
831.0,1612.0,2088.0,2133.0,5178348.0,
833.0,1613.0,2092.0,2134.0,5178352.0,
831.0,1612.0,2099.0,2137.0,5178355.0,
831.0,1611.0,2094.0,2137.0,5178359.0,
831.0,1614.0,2096.0,2138.0,5178363.0,
839.0,1611.0,2095.0,2133.0,5178366.0,
831.0,1612.0,2096.0,2135.0,5178370.0,
832.0,1610.0,2093.0,2133.0,5178373.0,
832.0,1611.0,2096.0,2131.0,5178377.0,
832.0,1612.0,2094.0,2133.0,5178381.0,
831.0,1609.0,2094.0,2132.0,5178384.0,
831.0,1612.0,2094.0,2130.0,5178388.0,
831.0,1612.0,2091.0,2131.0,5178392.0,
829.0,1609.0,2091.0,2127.0,5178395.0,
831.0,1612.0,2092.0,2128.0,5178399.0,
831.0,1612.0,2090.0,2126.0,5178403.0,
830.0,1611.0,2090.0,2127.0,5178406.0,
831.0,1611.0,2089.0,2121.0,5178410.0,
831.0,1613.0,2095.0,2123.0,5178413.0,
830.0,1612.0,2090.0,2119.0,5178417.0,
831.0,1613.0,2090.0,2118.0,5178421.0,
830.0,1612.0,2084.0,2111.0,5178424.0,
830.0,1612.0,2088.0,2106.0,5178428.0,
829.0,1610.0,2090.0,2105.0,5178432.0,
831.0,1612.0,2090.0,2104.0,5178435.0,
830.0,1611.0,2091.0,2102.0,5178439.0,
830.0,1611.0,2088.0,2101.0,5178443.0,
829.0,1613.0,2089.0,2097.0,5178446.0,
829.0,1612.0,2088.0,2098.0,5178450.0,
830.0,1610.0,2087.0,2093.0,5178453.0,
829.0,1611.0,2089.0,2088.0,5178457.0,
829.0,1611.0,2086.0,2084.0,5178461.0,
830.0,1611.0,2086.0,2079.0,5178464.0,
828.0,1612.0,2086.0,2071.0,5178468.0,
829.0,1605.0,2084.0,2071.0,5178472.0,
829.0,1612.0,2081.0,2070.0,5178475.0,
822.0,1611.0,2082.0,2065.0,5178479.0,
828.0,1612.0,2083.0,2066.0,5178483.0,
830.0,1612.0,2081.0,2062.0,5178486.0,
829.0,1610.0,2081.0,2060.0,5178490.0,
829.0,1610.0,2079.0,2058.0,5178493.0,
828.0,1613.0,2078.0,2057.0,5178497.0,
829.0,1610.0,2076.0,2052.0,5178501.0,
829.0,1611.0,2075.0,2053.0,5178504.0,
829.0,1611.0,2074.0,2049.0,5178508.0,
828.0,1611.0,2072.0,2047.0,5178512.0,
827.0,1611.0,2072.0,2045.0,5178515.0,
828.0,1610.0,2070.0,2053.0,5178519.0,
827.0,1611.0,2070.0,2041.0,5178522.0,
827.0,1610.0,2068.0,2042.0,5178526.0,
825.0,1613.0,2062.0,2044.0,5178530.0,
828.0,1610.0,2064.0,2047.0,5178533.0,
828.0,1610.0,2063.0,2043.0,5178537.0,
829.0,1611.0,2060.0,2046.0,5178541.0,
828.0,1610.0,2062.0,2045.0,5178544.0,
827.0,1613.0,2057.0,2043.0,5178548.0,
827.0,1610.0,2059.0,2041.0,5178552.0,
828.0,1611.0,2061.0,2042.0,5178555.0,
828.0,1611.0,2060.0,2041.0,5178559.0,
827.0,1611.0,2060.0,2043.0,5178562.0,
827.0,1610.0,2062.0,2042.0,5178566.0,
827.0,1610.0,2067.0,2044.0,5178570.0,
828.0,1611.0,2067.0,2048.0,5178573.0,
828.0,1610.0,2068.0,2047.0,5178577.0,
827.0,1612.0,2069.0,2050.0,5178581.0,
827.0,1612.0,2069.0,2054.0,5178584.0,
826.0,1611.0,2069.0,2053.0,5178588.0,
827.0,1611.0,2069.0,2054.0,5178592.0,
828.0,1609.0,2069.0,2053.0,5178595.0,
827.0,1610.0,2069.0,2055.0,5178599.0,
822.0,1610.0,2071.0,2053.0,5178602.0,
827.0,1612.0,2069.0,2054.0,5178606.0,
828.0,1610.0,2066.0,2051.0,5178610.0,
827.0,1611.0,2064.0,2051.0,5178613.0,
826.0,1611.0,2064.0,2050.0,5178617.0,
826.0,1609.0,2061.0,2047.0,5178621.0,
826.0,1611.0,2060.0,2043.0,5178624.0,
827.0,1605.0,2056.0,2039.0,5178628.0,
826.0,1608.0,2054.0,2034.0,5178631.0,
827.0,1613.0,2056.0,2033.0,5178635.0,
829.0,1610.0,2053.0,2034.0,5178639.0,
826.0,1610.0,2052.0,2033.0,5178642.0,
826.0,1610.0,2050.0,2034.0,5178646.0,
826.0,1610.0,2052.0,2034.0,5178650.0,
826.0,1611.0,2051.0,2034.0,5178653.0,
828.0,1611.0,2048.0,2032.0,5178657.0,
826.0,1611.0,2046.0,2031.0,5178661.0,
826.0,1612.0,2047.0,2030.0,5178664.0,
826.0,1611.0,2046.0,2029.0,5178668.0,
826.0,1611.0,2048.0,2026.0,5178671.0,
826.0,1612.0,2049.0,2024.0,5178675.0,
826.0,1613.0,2046.0,2019.0,5178679.0,
826.0,1608.0,2049.0,2017.0,5178682.0,
822.0,1611.0,2045.0,2015.0,5178686.0,
828.0,1610.0,2044.0,2014.0,5178690.0,
825.0,1610.0,2043.0,2010.0,5178693.0,
825.0,1611.0,2042.0,2010.0,5178697.0,
825.0,1610.0,2043.0,2007.0,5178701.0,
825.0,1611.0,2042.0,2007.0,5178704.0,
826.0,1607.0,2042.0,2001.0,5178708.0,
825.0,1609.0,2043.0,2000.0,5178711.0,
827.0,1609.0,2041.0,1999.0,5178715.0,
825.0,1612.0,2043.0,1999.0,5178719.0,
826.0,1611.0,2042.0,2005.0,5178722.0,
828.0,1611.0,2043.0,1999.0,5178726.0,
826.0,1612.0,2040.0,2006.0,5178730.0,
825.0,1610.0,2045.0,2005.0,5178733.0,
820.0,1610.0,2047.0,2007.0,5178737.0,
828.0,1609.0,2044.0,2005.0,5178740.0,
824.0,1609.0,2045.0,2007.0,5178744.0,
824.0,1610.0,2046.0,2007.0,5178748.0,
824.0,1611.0,2047.0,2011.0,5178751.0,
824.0,1610.0,2046.0,2012.0,5178755.0,
825.0,1610.0,2047.0,2015.0,5178759.0,
825.0,1609.0,2041.0,2015.0,5178762.0,
824.0,1610.0,2043.0,2015.0,5178766.0,
831.0,1609.0,2046.0,2011.0,5178770.0,
824.0,1612.0,2041.0,2014.0,5178773.0,
824.0,1612.0,2040.0,2011.0,5178777.0,
824.0,1606.0,2039.0,2011.0,5178780.0,
823.0,1611.0,2037.0,2014.0,5178784.0,
825.0,1610.0,2038.0,2014.0,5178788.0,
824.0,1614.0,2037.0,2014.0,5178791.0,
823.0,1611.0,2036.0,2009.0,5178795.0,
824.0,1612.0,2037.0,2007.0,5178799.0,
824.0,1612.0,2037.0,2002.0,5178802.0,
