EDA,Resp,PPG Finger,PPG Ear,arduino_ts,event_code
1672.0,1704.0,1977.0,2113.0,2661886.0,
1670.0,1703.0,1979.0,2103.0,2661890.0,
1670.0,1704.0,1977.0,2095.0,2661893.0,
1670.0,1702.0,1979.0,2091.0,2661897.0,
1669.0,1702.0,1981.0,2085.0,2661900.0,
1670.0,1705.0,1980.0,2081.0,2661904.0,
1670.0,1703.0,1980.0,2073.0,2661908.0,
1670.0,1703.0,1982.0,2069.0,2661911.0,
1669.0,1703.0,1985.0,2061.0,2661915.0,
1671.0,1701.0,1985.0,2058.0,2661919.0,
1670.0,1703.0,1987.0,2054.0,2661922.0,
1669.0,1704.0,1989.0,2047.0,2661926.0,
1670.0,1704.0,1989.0,2043.0,2661930.0,
1669.0,1704.0,1988.0,2037.0,2661933.0,
1670.0,1703.0,1988.0,2033.0,2661937.0,
1663.0,1704.0,1987.0,2028.0,2661940.0,
1671.0,1703.0,1986.0,2028.0,2661944.0,
1664.0,1704.0,1987.0,2025.0,2661948.0,
1670.0,1705.0,1986.0,2023.0,2661951.0,
1672.0,1704.0,1984.0,2020.0,2661955.0,
1670.0,1704.0,1984.0,2017.0,2661959.0,
1671.0,1705.0,1983.0,2015.0,2661962.0,
1670.0,1706.0,1984.0,2015.0,2661966.0,
1672.0,1704.0,1982.0,2013.0,2661970.0,
1670.0,1704.0,1981.0,2011.0,2661973.0,
1668.0,1705.0,1983.0,2013.0,2661977.0,
1670.0,1705.0,1983.0,2009.0,2661980.0,
1670.0,1703.0,1982.0,2010.0,2661984.0,
1670.0,1703.0,1984.0,2009.0,2661988.0,
1667.0,1705.0,1981.0,2011.0,2661991.0,
1670.0,1704.0,1978.0,2007.0,2661995.0,
1673.0,1705.0,1980.0,2006.0,2661999.0,
1671.0,1705.0,1980.0,2004.0,2662002.0,
1670.0,1703.0,1981.0,2005.0,2662006.0,
1670.0,1703.0,1983.0,2004.0,2662010.0,
1670.0,1705.0,1982.0,2004.0,2662013.0,
1670.0,1705.0,1983.0,2002.0,2662017.0,
1670.0,1705.0,1983.0,2003.0,2662020.0,
1670.0,1703.0,1985.0,2005.0,2662024.0,
1673.0,1705.0,1984.0,2003.0,2662028.0,
1667.0,1700.0,1984.0,2002.0,2662031.0,
1670.0,1703.0,1985.0,2002.0,2662035.0,
1670.0,1703.0,1985.0,2001.0,2662039.0,
1671.0,1705.0,1985.0,2001.0,2662042.0,
1669.0,1704.0,1981.0,2001.0,2662046.0,
1671.0,1705.0,1985.0,1999.0,2662050.0,
1670.0,1706.0,1986.0,1997.0,2662053.0,
1671.0,1703.0,1986.0,1995.0,2662057.0,
1670.0,1705.0,1986.0,1993.0,2662060.0,
1670.0,1700.0,1989.0,1988.0,2662064.0,
1671.0,1705.0,1983.0,1986.0,2662068.0,
1670.0,1699.0,1988.0,1981.0,2662071.0,
1670.0,1706.0,1989.0,1977.0,2662075.0,
1671.0,1706.0,1990.0,1976.0,2662079.0,
1670.0,1705.0,1991.0,1974.0,2662082.0,
1670.0,1705.0,1995.0,1970.0,2662086.0,
1671.0,1706.0,1995.0,1970.0,2662089.0,
1670.0,1704.0,1995.0,1968.0,2662093.0,
1671.0,1706.0,1996.0,1967.0,2662097.0,
1671.0,1704.0,1989.0,1965.0,2662100.0,
1670.0,1704.0,1993.0,1965.0,2662104.0,
1670.0,1703.0,1993.0,1966.0,2662108.0,
1671.0,1705.0,1990.0,1965.0,2662111.0,
1672.0,1703.0,1987.0,1964.0,2662115.0,
1670.0,1704.0,1988.0,1964.0,2662119.0,
1671.0,1703.0,1990.0,1969.0,2662122.0,
1671.0,1705.0,1984.0,1971.0,2662126.0,
1671.0,1704.0,1983.0,1972.0,2662129.0,
1671.0,1704.0,1981.0,1973.0,2662133.0,
1671.0,1702.0,1984.0,1974.0,2662137.0,
1672.0,1705.0,1974.0,1977.0,2662140.0,
1672.0,1704.0,1980.0,1975.0,2662144.0,
1671.0,1706.0,1981.0,1976.0,2662148.0,
1671.0,1704.0,1976.0,1974.0,2662151.0,
1671.0,1703.0,1971.0,1973.0,2662155.0,
1671.0,1704.0,1971.0,1970.0,2662159.0,
1672.0,1704.0,1969.0,1963.0,2662162.0,
1671.0,1704.0,1968.0,1960.0,2662166.0,
1673.0,1703.0,1966.0,1957.0,2662169.0,
1672.0,1705.0,1965.0,1950.0,2662173.0,
1670.0,1709.0,1964.0,1951.0,2662177.0,
1671.0,1704.0,1963.0,1949.0,2662180.0,
1671.0,1703.0,1961.0,1949.0,2662184.0,
1670.0,1702.0,1960.0,1949.0,2662188.0,
1670.0,1703.0,1958.0,1947.0,2662191.0,
1671.0,1704.0,1956.0,1948.0,2662195.0,
1671.0,1705.0,1957.0,1946.0,2662199.0,
1671.0,1703.0,1952.0,1950.0,2662202.0,
1672.0,1703.0,1952.0,1948.0,2662206.0,
1671.0,1702.0,1948.0,1947.0,2662209.0,
1671.0,1704.0,1949.0,1949.0,2662213.0,
1670.0,1702.0,1946.0,1951.0,2662217.0,
1671.0,1703.0,1940.0,1951.0,2662220.0,
1671.0,1703.0,1938.0,1954.0,2662224.0,
1672.0,1701.0,1932.0,1953.0,2662228.0,
1672.0,1703.0,1929.0,1955.0,2662231.0,
1672.0,1703.0,1925.0,1957.0,2662235.0,
1672.0,1702.0,1917.0,1956.0,2662238.0,
1672.0,1705.0,1914.0,1957.0,2662242.0,
1678.0,1701.0,1913.0,1955.0,2662246.0,
1671.0,1703.0,1910.0,1955.0,2662249.0,
1672.0,1702.0,1909.0,1958.0,2662253.0,
1672.0,1703.0,1907.0,1957.0,2662257.0,
1671.0,1705.0,1907.0,1958.0,2662260.0,
1671.0,1699.0,1899.0,1960.0,2662264.0,
1671.0,1701.0,1904.0,1960.0,2662268.0,
1672.0,1705.0,1903.0,1960.0,2662271.0,
1672.0,1709.0,1903.0,1961.0,2662275.0,
1672.0,1703.0,1904.0,1965.0,2662278.0,
1671.0,1702.0,1906.0,1963.0,2662282.0,
1672.0,1703.0,1907.0,1962.0,2662286.0,
1671.0,1703.0,1910.0,1960.0,2662289.0,
1672.0,1704.0,1910.0,1960.0,2662293.0,
1674.0,1705.0,1911.0,1960.0,2662297.0,
1671.0,1704.0,1915.0,1961.0,2662300.0,
1671.0,1704.0,1916.0,1963.0,2662304.0,
1672.0,1704.0,1918.0,1967.0,2662308.0,
1671.0,1704.0,1922.0,1965.0,2662311.0,
1673.0,1703.0,1921.0,1966.0,2662315.0,
1672.0,1704.0,1924.0,1963.0,2662318.0,
1672.0,1702.0,1926.0,1962.0,2662322.0,
1671.0,1703.0,1929.0,1962.0,2662326.0,
1671.0,1702.0,1930.0,1961.0,2662329.0,
1673.0,1703.0,1930.0,1956.0,2662333.0,
1672.0,1703.0,1930.0,1959.0,2662337.0,
1673.0,1704.0,1934.0,1953.0,2662340.0,
1671.0,1705.0,1931.0,1954.0,2662344.0,
1672.0,1704.0,1935.0,1952.0,2662348.0,
1672.0,1702.0,1934.0,1950.0,2662351.0,
1672.0,1703.0,1941.0,1949.0,2662355.0,
1674.0,1703.0,1937.0,1948.0,2662358.0,
1673.0,1704.0,1938.0,1946.0,2662362.0,
1671.0,1704.0,1940.0,1946.0,2662366.0,
1671.0,1703.0,1939.0,1946.0,2662369.0,
1671.0,1704.0,1940.0,1946.0,2662373.0,
1673.0,1698.0,1940.0,1947.0,2662377.0,
1672.0,1706.0,1939.0,1946.0,2662380.0,
1672.0,1704.0,1941.0,1946.0,2662384.0,
1674.0,1702.0,1944.0,1948.0,2662387.0,
1672.0,1701.0,1939.0,1950.0,2662391.0,
1672.0,1702.0,1940.0,1954.0,2662395.0,
1673.0,1701.0,1935.0,1956.0,2662398.0,
1673.0,1701.0,1933.0,1965.0,2662402.0,
1672.0,1703.0,1932.0,1971.0,2662406.0,
1673.0,1702.0,1927.0,1977.0,2662409.0,
1672.0,1703.0,1925.0,1982.0,2662413.0,
1675.0,1702.0,1925.0,1991.0,2662417.0,
1672.0,1700.0,1919.0,1997.0,2662420.0,
1673.0,1701.0,1919.0,2006.0,2662424.0,
1674.0,1701.0,1914.0,2015.0,2662427.0,
1674.0,1701.0,1913.0,2024.0,2662431.0,
1670.0,1701.0,1913.0,2034.0,2662435.0,
1671.0,1703.0,1908.0,2042.0,2662438.0,
1674.0,1701.0,1909.0,2053.0,2662442.0,
1671.0,1702.0,1910.0,2069.0,2662446.0,
1672.0,1702.0,1909.0,2081.0,2662449.0,
1673.0,1701.0,1912.0,2095.0,2662453.0,
1673.0,1700.0,1914.0,2108.0,2662457.0,
1673.0,1700.0,1917.0,2122.0,2662460.0,
1673.0,1699.0,1920.0,2133.0,2662464.0,
1673.0,1702.0,1923.0,2145.0,2662467.0,
1672.0,1700.0,1931.0,2157.0,2662471.0,
1672.0,1701.0,1938.0,2169.0,2662475.0,
1673.0,1705.0,1942.0,2180.0,2662478.0,
1673.0,1704.0,1948.0,2192.0,2662482.0,
1672.0,1699.0,1954.0,2202.0,2662486.0,
1673.0,1701.0,1959.0,2214.0,2662489.0,
1672.0,1700.0,1968.0,2224.0,2662493.0,
1673.0,1701.0,1972.0,2233.0,2662497.0,
1673.0,1700.0,1977.0,2241.0,2662500.0,
1674.0,1702.0,1980.0,2251.0,2662504.0,
1674.0,1703.0,1989.0,2254.0,2662507.0,
1673.0,1700.0,1996.0,2260.0,2662511.0,
1676.0,1700.0,2001.0,2265.0,2662515.0,
1674.0,1699.0,2007.0,2273.0,2662518.0,
1673.0,1699.0,2014.0,2276.0,2662522.0,
1673.0,1701.0,2019.0,2279.0,2662526.0,
1671.0,1701.0,2024.0,2284.0,2662529.0,
1673.0,1701.0,2029.0,2284.0,2662533.0,
1672.0,1702.0,2032.0,2285.0,2662536.0,
1674.0,1701.0,2033.0,2286.0,2662540.0,
1673.0,1701.0,2037.0,2288.0,2662544.0,
1673.0,1700.0,2040.0,2283.0,2662547.0,
1672.0,1700.0,2044.0,2282.0,2662551.0,
1673.0,1700.0,2045.0,2278.0,2662555.0,
1673.0,1699.0,2047.0,2277.0,2662558.0,
1674.0,1699.0,2049.0,2273.0,2662562.0,
1675.0,1700.0,2052.0,2271.0,2662566.0,
1674.0,1701.0,2052.0,2265.0,2662569.0,
1674.0,1699.0,2048.0,2262.0,2662573.0,
1672.0,1699.0,2051.0,2255.0,2662576.0,
1675.0,1703.0,2052.0,2248.0,2662580.0,
1675.0,1700.0,2055.0,2242.0,2662584.0,
1679.0,1701.0,2051.0,2235.0,2662587.0,
1674.0,1699.0,2052.0,2230.0,2662591.0,
1674.0,1700.0,2052.0,2221.0,2662595.0,
1674.0,1699.0,2051.0,2209.0,2662598.0,
1674.0,1700.0,2047.0,2199.0,2662602.0,
1673.0,1700.0,2042.0,2190.0,2662606.0,
1674.0,1699.0,2040.0,2180.0,2662609.0,
1675.0,1699.0,2037.0,2170.0,2662613.0,
1674.0,1701.0,2035.0,2161.0,2662616.0,
1675.0,1699.0,2030.0,2150.0,2662620.0,
1677.0,1701.0,2027.0,2145.0,2662624.0,
1675.0,1699.0,2019.0,2138.0,2662627.0,
1674.0,1700.0,2015.0,2132.0,2662631.0,
1672.0,1700.0,2013.0,2122.0,2662635.0,
1674.0,1700.0,2006.0,2113.0,2662638.0,
1675.0,1698.0,2000.0,2106.0,2662642.0,
1673.0,1699.0,1996.0,2096.0,2662646.0,
1675.0,1699.0,1991.0,2084.0,2662649.0,
1672.0,1699.0,1989.0,2078.0,2662653.0,
1674.0,1700.0,1987.0,2070.0,2662656.0,
1673.0,1699.0,1985.0,2064.0,2662660.0,
1673.0,1699.0,1980.0,2062.0,2662664.0,
1674.0,1699.0,1980.0,2056.0,2662667.0,
1674.0,1699.0,1977.0,2051.0,2662671.0,
1674.0,1700.0,1977.0,2047.0,2662675.0,
1674.0,1700.0,1972.0,2043.0,2662678.0,
1677.0,1699.0,1969.0,2040.0,2662682.0,
1673.0,1700.0,1966.0,2036.0,2662685.0,
1673.0,1698.0,1963.0,2030.0,2662689.0,
1673.0,1701.0,1966.0,2026.0,2662693.0,
1674.0,1695.0,1960.0,2023.0,2662696.0,
1675.0,1698.0,1957.0,2017.0,2662700.0,
1671.0,1697.0,1949.0,2014.0,2662704.0,
1675.0,1698.0,1951.0,2015.0,2662707.0,
1673.0,1698.0,1950.0,2013.0,2662711.0,
1674.0,1699.0,1951.0,2013.0,2662715.0,
1674.0,1699.0,1946.0,2008.0,2662718.0,
1675.0,1698.0,1946.0,2014.0,2662722.0,
1674.0,1698.0,1944.0,2014.0,2662725.0,
1673.0,1699.0,1943.0,2017.0,2662729.0,
1674.0,1699.0,1939.0,2017.0,2662733.0,
1671.0,1700.0,1942.0,2014.0,2662736.0,
1673.0,1699.0,1942.0,2015.0,2662740.0,
1674.0,1697.0,1944.0,2015.0,2662744.0,
1675.0,1699.0,1943.0,2015.0,2662747.0,
1674.0,1697.0,1942.0,2011.0,2662751.0,
1674.0,1699.0,1944.0,2014.0,2662755.0,
1672.0,1700.0,1946.0,2010.0,2662758.0,
1673.0,1706.0,1946.0,2014.0,2662762.0,
1675.0,1699.0,1950.0,2012.0,2662765.0,
1674.0,1697.0,1954.0,2011.0,2662769.0,
1674.0,1698.0,1954.0,2010.0,2662773.0,
1672.0,1699.0,1956.0,2010.0,2662776.0,
1674.0,1698.0,1959.0,2013.0,2662780.0,
1672.0,1699.0,1961.0,2014.0,2662784.0,
1674.0,1697.0,1962.0,2014.0,2662787.0,
1674.0,1697.0,1965.0,2016.0,2662791.0,
1674.0,1699.0,1967.0,2020.0,2662795.0,
1673.0,1699.0,1969.0,2019.0,2662798.0,
1676.0,1699.0,1970.0,2023.0,2662802.0,
1675.0,1698.0,1973.0,2015.0,2662805.0,
1673.0,1698.0,1974.0,2022.0,2662809.0,
1675.0,1699.0,1978.0,2022.0,2662813.0,
1675.0,1699.0,1980.0,2018.0,2662816.0,
1674.0,1698.0,1981.0,2018.0,2662820.0,
1674.0,1697.0,1982.0,2011.0,2662824.0,
1673.0,1698.0,1983.0,2011.0,2662827.0,
1674.0,1697.0,1983.0,2006.0,2662831.0,
1675.0,1698.0,1983.0,2005.0,2662834.0,
1674.0,1698.0,1986.0,2000.0,2662838.0,
1674.0,1698.0,1986.0,2001.0,2662842.0,
1673.0,1692.0,1985.0,1998.0,2662845.0,
1674.0,1696.0,1987.0,1992.0,2662849.0,
1674.0,1697.0,1985.0,1990.0,2662853.0,
1675.0,1698.0,1985.0,1987.0,2662856.0,
1674.0,1701.0,1985.0,1985.0,2662860.0,
1676.0,1698.0,1986.0,1980.0,2662864.0,
1675.0,1699.0,1982.0,1981.0,2662867.0,
1675.0,1699.0,1982.0,1970.0,2662871.0,
1674.0,1697.0,1982.0,1968.0,2662874.0,
1674.0,1697.0,1980.0,1964.0,2662878.0,
1677.0,1697.0,1978.0,1963.0,2662882.0,
1675.0,1696.0,1978.0,1959.0,2662885.0,
1675.0,1697.0,1980.0,1957.0,2662889.0,
1674.0,1697.0,1979.0,1953.0,2662893.0,
1674.0,1698.0,1977.0,1952.0,2662896.0,
1674.0,1698.0,1979.0,1953.0,2662900.0,
1674.0,1699.0,1977.0,1955.0,2662904.0,
1676.0,1696.0,1977.0,1952.0,2662907.0,
1674.0,1697.0,1979.0,1948.0,2662911.0,
1668.0,1699.0,1975.0,1948.0,2662914.0,
1675.0,1693.0,1973.0,1947.0,2662918.0,
1677.0,1697.0,1972.0,1948.0,2662922.0,
1673.0,1699.0,1969.0,1950.0,2662925.0,
1673.0,1698.0,1965.0,1948.0,2662929.0,
1674.0,1697.0,1961.0,1953.0,2662933.0,
1674.0,1698.0,1958.0,1956.0,2662936.0,
1674.0,1698.0,1960.0,1959.0,2662940.0,
1674.0,1699.0,1955.0,1960.0,2662944.0,
1674.0,1696.0,1954.0,1960.0,2662947.0,
1675.0,1698.0,1947.0,1959.0,2662951.0,
1675.0,1697.0,1951.0,1959.0,2662954.0,
1674.0,1703.0,1947.0,1958.0,2662958.0,
1675.0,1696.0,1946.0,1959.0,2662962.0,
1674.0,1694.0,1945.0,1959.0,2662965.0,
1674.0,1694.0,1946.0,1961.0,2662969.0,
1673.0,1697.0,1944.0,1961.0,2662973.0,
1675.0,1695.0,1947.0,1963.0,2662976.0,
1674.0,1697.0,1948.0,1963.0,2662980.0,
1675.0,1698.0,1947.0,1962.0,2662983.0,
1673.0,1698.0,1950.0,1964.0,2662987.0,
1672.0,1697.0,1950.0,1963.0,2662991.0,
1676.0,1695.0,1949.0,1967.0,2662994.0,
1674.0,1697.0,1948.0,1966.0,2662998.0,
1677.0,1697.0,1954.0,1966.0,2663002.0,
1675.0,1696.0,1949.0,1965.0,2663005.0,
1675.0,1696.0,1953.0,1964.0,2663009.0,
1674.0,1694.0,1948.0,1966.0,2663013.0,
1675.0,1697.0,1949.0,1965.0,2663016.0,
1677.0,1696.0,1946.0,1968.0,2663020.0,
1675.0,1695.0,1950.0,1967.0,2663023.0,
1675.0,1695.0,1949.0,1968.0,2663027.0,
1675.0,1696.0,1950.0,1967.0,2663031.0,
1674.0,1696.0,1950.0,1966.0,2663034.0,
1675.0,1693.0,1955.0,1965.0,2663038.0,
1675.0,1696.0,1954.0,1966.0,2663042.0,
1676.0,1695.0,1954.0,1968.0,2663045.0,
1674.0,1696.0,1954.0,1962.0,2663049.0,
1675.0,1695.0,1957.0,1962.0,2663053.0,
1666.0,1695.0,1958.0,1958.0,2663056.0,
1675.0,1696.0,1958.0,1959.0,2663060.0,
1676.0,1695.0,1959.0,1959.0,2663063.0,
1676.0,1694.0,1960.0,1956.0,2663067.0,
1676.0,1695.0,1961.0,1959.0,2663071.0,
1674.0,1694.0,1960.0,1955.0,2663074.0,
1676.0,1694.0,1960.0,1951.0,2663078.0,
1675.0,1694.0,1960.0,1952.0,2663082.0,
1674.0,1695.0,1959.0,1947.0,2663085.0,
1674.0,1693.0,1960.0,1942.0,2663089.0,
1676.0,1695.0,1960.0,1946.0,2663093.0,
1675.0,1695.0,1957.0,1945.0,2663096.0,
1675.0,1694.0,1959.0,1948.0,2663100.0,
1676.0,1698.0,1957.0,1949.0,2663103.0,
1675.0,1693.0,1959.0,1952.0,2663107.0,
1674.0,1692.0,1958.0,1958.0,2663111.0,
1678.0,1694.0,1958.0,1962.0,2663114.0,
1676.0,1693.0,1956.0,1970.0,2663118.0,
1674.0,1692.0,1955.0,1971.0,2663122.0,
1673.0,1693.0,1952.0,1977.0,2663125.0,
1676.0,1694.0,1953.0,1981.0,2663129.0,
1676.0,1693.0,1948.0,1991.0,2663133.0,
1675.0,1694.0,1950.0,1995.0,2663136.0,
1676.0,1693.0,1948.0,2005.0,2663140.0,
1675.0,1692.0,1946.0,2012.0,2663143.0,
1676.0,1696.0,1945.0,2022.0,2663147.0,
1675.0,1692.0,1944.0,2031.0,2663151.0,
1673.0,1692.0,1942.0,2039.0,2663154.0,
1677.0,1694.0,1942.0,2049.0,2663158.0,
1676.0,1691.0,1941.0,2057.0,2663162.0,
1675.0,1690.0,1942.0,2070.0,2663165.0,
1675.0,1691.0,1939.0,2086.0,2663169.0,
1676.0,1690.0,1940.0,2094.0,2663172.0,
1676.0,1692.0,1941.0,2107.0,2663176.0,
1675.0,1692.0,1942.0,2117.0,2663180.0,
1675.0,1692.0,1946.0,2130.0,2663183.0,
1676.0,1692.0,1945.0,2141.0,2663187.0,
1673.0,1693.0,1949.0,2151.0,2663191.0,
1674.0,1692.0,1954.0,2163.0,2663194.0,
1676.0,1692.0,1955.0,2174.0,2663198.0,
1676.0,1692.0,1958.0,2194.0,2663202.0,
1674.0,1693.0,1964.0,2195.0,2663205.0,
1677.0,1692.0,1964.0,2204.0,2663209.0,
1676.0,1691.0,1971.0,2214.0,2663212.0,
1675.0,1691.0,1976.0,2223.0,2663216.0,
1676.0,1692.0,1979.0,2229.0,2663220.0,
1676.0,1690.0,1987.0,2237.0,2663223.0,
1676.0,1691.0,1993.0,2242.0,2663227.0,
1677.0,1691.0,1999.0,2243.0,2663231.0,
1676.0,1687.0,2004.0,2260.0,2663234.0,
1676.0,1690.0,2008.0,2264.0,2663238.0,
1677.0,1690.0,2015.0,2272.0,2663242.0,
1677.0,1689.0,2022.0,2280.0,2663245.0,
1675.0,1693.0,2025.0,2285.0,2663249.0,
1674.0,1691.0,2032.0,2293.0,2663252.0,
1679.0,1690.0,2035.0,2297.0,2663256.0,
1677.0,1691.0,2037.0,2305.0,2663260.0,
1675.0,1689.0,2043.0,2308.0,2663263.0,
1677.0,1692.0,2042.0,2307.0,2663267.0,
1679.0,1689.0,2046.0,2315.0,2663271.0,
1674.0,1688.0,2049.0,2316.0,2663274.0,
1677.0,1691.0,2052.0,2318.0,2663278.0,
1678.0,1692.0,2054.0,2318.0,2663281.0,
1679.0,1690.0,2058.0,2316.0,2663285.0,
1676.0,1692.0,2058.0,2316.0,2663289.0,
1677.0,1692.0,2061.0,2318.0,2663292.0,
1677.0,1692.0,2061.0,2317.0,2663296.0,
1676.0,1693.0,2066.0,2313.0,2663300.0,
1677.0,1691.0,2066.0,2310.0,2663303.0,
1677.0,1691.0,2068.0,2307.0,2663307.0,
1676.0,1692.0,2068.0,2303.0,2663311.0,
1677.0,1688.0,2069.0,2298.0,2663314.0,
1676.0,1690.0,2068.0,2295.0,2663318.0,
1677.0,1690.0,2065.0,2293.0,2663321.0,
1677.0,1691.0,2067.0,2287.0,2663325.0,
1678.0,1690.0,2063.0,2286.0,2663329.0,
1677.0,1692.0,2063.0,2281.0,2663332.0,
1676.0,1692.0,2060.0,2276.0,2663336.0,
1678.0,1692.0,2058.0,2273.0,2663340.0,
1677.0,1691.0,2058.0,2265.0,2663343.0,
1678.0,1693.0,2057.0,2259.0,2663347.0,
1677.0,1689.0,2056.0,2254.0,2663351.0,
1676.0,1691.0,2056.0,2249.0,2663354.0,
1678.0,1691.0,2056.0,2241.0,2663358.0,
1677.0,1690.0,2054.0,2233.0,2663361.0,
1678.0,1690.0,2056.0,2227.0,2663365.0,
1675.0,1691.0,2057.0,2222.0,2663369.0,
1676.0,1692.0,2056.0,2216.0,2663372.0,
1676.0,1691.0,2054.0,2210.0,2663376.0,
1678.0,1690.0,2054.0,2206.0,2663380.0,
1679.0,1690.0,2052.0,2198.0,2663383.0,
1678.0,1689.0,2049.0,2190.0,2663387.0,
1677.0,1691.0,2051.0,2182.0,2663391.0,
1678.0,1693.0,2049.0,2174.0,2663394.0,
1676.0,1692.0,2046.0,2165.0,2663398.0,
1677.0,1692.0,2044.0,2159.0,2663401.0,
1678.0,1689.0,2043.0,2151.0,2663405.0,
1677.0,1692.0,2040.0,2147.0,2663409.0,
1677.0,1689.0,2040.0,2143.0,2663412.0,
1677.0,1691.0,2037.0,2138.0,2663416.0,
1678.0,1690.0,2036.0,2133.0,2663420.0,
1678.0,1692.0,2034.0,2129.0,2663423.0,
1678.0,1692.0,2030.0,2126.0,2663427.0,
1678.0,1695.0,2028.0,2119.0,2663431.0,
1683.0,1692.0,2026.0,2115.0,2663434.0,
1676.0,1691.0,2025.0,2110.0,2663438.0,
1677.0,1695.0,2029.0,2104.0,2663441.0,
1679.0,1690.0,2018.0,2099.0,2663445.0,
1681.0,1691.0,2019.0,2093.0,2663449.0,
1677.0,1690.0,2018.0,2092.0,2663452.0,
1677.0,1690.0,2016.0,2088.0,2663456.0,
1678.0,1691.0,2015.0,2088.0,2663460.0,
1679.0,1690.0,2017.0,2083.0,2663463.0,
1681.0,1693.0,2016.0,2080.0,2663467.0,
1678.0,1694.0,2018.0,2080.0,2663470.0,
1678.0,1692.0,2014.0,2079.0,2663474.0,
1677.0,1690.0,2012.0,2077.0,2663478.0,
1677.0,1690.0,2016.0,2079.0,2663481.0,
1678.0,1693.0,2018.0,2074.0,2663485.0,
1678.0,1692.0,2022.0,2072.0,2663489.0,
1678.0,1692.0,2018.0,2074.0,2663492.0,
1678.0,1692.0,2020.0,2074.0,2663496.0,
1678.0,1687.0,2022.0,2072.0,2663500.0,
1678.0,1691.0,2020.0,2071.0,2663503.0,
1677.0,1690.0,2022.0,2069.0,2663507.0,
1679.0,1692.0,2024.0,2069.0,2663510.0,
1677.0,1690.0,2025.0,2064.0,2663514.0,
1678.0,1692.0,2030.0,2063.0,2663518.0,
1678.0,1691.0,2030.0,2062.0,2663521.0,
1678.0,1694.0,2035.0,2059.0,2663525.0,
1679.0,1692.0,2034.0,2058.0,2663529.0,
1678.0,1691.0,2037.0,2055.0,2663532.0,
1677.0,1692.0,2037.0,2052.0,2663536.0,
1678.0,1692.0,2039.0,2047.0,2663540.0,
1679.0,1693.0,2041.0,2044.0,2663543.0,
1679.0,1691.0,2039.0,2046.0,2663547.0,
1677.0,1690.0,2039.0,2039.0,2663550.0,
1678.0,1691.0,2037.0,2037.0,2663554.0,
1678.0,1690.0,2039.0,2039.0,2663558.0,
1679.0,1692.0,2037.0,2031.0,2663561.0,
1678.0,1692.0,2037.0,2031.0,2663565.0,
1678.0,1690.0,2035.0,2026.0,2663569.0,
1678.0,1692.0,2034.0,2026.0,2663572.0,
1678.0,1693.0,2029.0,2022.0,2663576.0,
1680.0,1691.0,2027.0,2015.0,2663580.0,
1678.0,1693.0,2027.0,2014.0,2663583.0,
1679.0,1692.0,2026.0,2010.0,2663587.0,
1679.0,1691.0,2023.0,2006.0,2663590.0,
1679.0,1693.0,2024.0,2003.0,2663594.0,
1678.0,1692.0,2024.0,2000.0,2663598.0,
1679.0,1692.0,2023.0,1999.0,2663601.0,
1677.0,1691.0,2021.0,1995.0,2663605.0,
1677.0,1691.0,2019.0,1993.0,2663609.0,
1679.0,1691.0,2014.0,1986.0,2663612.0,
1679.0,1693.0,2013.0,1983.0,2663616.0,
1679.0,1691.0,2014.0,1980.0,2663619.0,
1679.0,1696.0,2009.0,1976.0,2663623.0,
1678.0,1692.0,2009.0,1973.0,2663627.0,
1678.0,1689.0,2006.0,1968.0,2663630.0,
1677.0,1691.0,2002.0,1971.0,2663634.0,
1678.0,1691.0,2002.0,1970.0,2663638.0,
1679.0,1692.0,2000.0,1971.0,2663641.0,
1676.0,1692.0,1994.0,1970.0,2663645.0,
1678.0,1694.0,1996.0,1971.0,2663649.0,
1678.0,1692.0,1992.0,1972.0,2663652.0,
1681.0,1690.0,1992.0,1972.0,2663656.0,
1678.0,1696.0,1992.0,1975.0,2663659.0,
1678.0,1691.0,1990.0,1975.0,2663663.0,
1677.0,1692.0,1990.0,1971.0,2663667.0,
1678.0,1692.0,1988.0,1978.0,2663670.0,
1680.0,1691.0,1985.0,1976.0,2663674.0,
1678.0,1692.0,1987.0,1979.0,2663678.0,
1678.0,1691.0,1988.0,1977.0,2663681.0,
1677.0,1690.0,1987.0,1973.0,2663685.0,
1676.0,1689.0,1986.0,1976.0,2663689.0,
1677.0,1691.0,1986.0,1972.0,2663692.0,
1678.0,1691.0,1985.0,1968.0,2663696.0,
1675.0,1691.0,1981.0,1969.0,2663699.0,
1676.0,1688.0,1984.0,1967.0,2663703.0,
1676.0,1690.0,1986.0,1961.0,2663707.0,
1681.0,1690.0,1983.0,1964.0,2663710.0,
1678.0,1690.0,1981.0,1962.0,2663714.0,
1677.0,1690.0,1980.0,1959.0,2663718.0,
1679.0,1691.0,1980.0,1959.0,2663721.0,
1678.0,1690.0,1976.0,1959.0,2663725.0,
1677.0,1689.0,1977.0,1958.0,2663729.0,
1677.0,1691.0,1978.0,1960.0,2663732.0,
1679.0,1687.0,1979.0,1955.0,2663736.0,
1680.0,1690.0,1979.0,1956.0,2663739.0,
1678.0,1690.0,1979.0,1954.0,2663743.0,
1678.0,1689.0,1979.0,1953.0,2663747.0,
1677.0,1692.0,1980.0,1954.0,2663750.0,
1678.0,1690.0,1977.0,1951.0,2663754.0,
1678.0,1689.0,1980.0,1952.0,2663758.0,
1677.0,1691.0,1981.0,1955.0,2663761.0,
1677.0,1689.0,1981.0,1952.0,2663765.0,
1677.0,1690.0,1982.0,1954.0,2663768.0,
1676.0,1690.0,1986.0,1956.0,2663772.0,
1680.0,1689.0,1982.0,1956.0,2663776.0,
1677.0,1692.0,1994.0,1960.0,2663779.0,
1677.0,1688.0,1989.0,1958.0,2663783.0,
1676.0,1687.0,1991.0,1958.0,2663787.0,
1677.0,1691.0,1993.0,1961.0,2663790.0,
1678.0,1689.0,1994.0,1963.0,2663794.0,
1679.0,1689.0,1997.0,1963.0,2663798.0,
1678.0,1682.0,2001.0,1962.0,2663801.0,
1678.0,1690.0,2002.0,1963.0,2663805.0,
1678.0,1689.0,2007.0,1961.0,2663808.0,
1679.0,1688.0,2008.0,1961.0,2663812.0,
1678.0,1690.0,2010.0,1958.0,2663816.0,
1678.0,1692.0,2012.0,1954.0,2663819.0,
1677.0,1688.0,2010.0,1952.0,2663823.0,
1677.0,1690.0,2013.0,1955.0,2663827.0,
1677.0,1690.0,2017.0,1955.0,2663830.0,
1678.0,1688.0,2019.0,1954.0,2663834.0,
1678.0,1690.0,2019.0,1956.0,2663838.0,
1678.0,1688.0,2021.0,1956.0,2663841.0,
1678.0,1691.0,2023.0,1960.0,2663845.0,
1679.0,1695.0,2025.0,1959.0,2663848.0,
1677.0,1692.0,2028.0,1963.0,2663852.0,
1677.0,1692.0,2030.0,1965.0,2663856.0,
1679.0,1691.0,2034.0,1971.0,2663859.0,
1677.0,1692.0,2035.0,1977.0,2663863.0,
1678.0,1693.0,2037.0,1983.0,2663867.0,
1681.0,1693.0,2041.0,1991.0,2663870.0,
1674.0,1692.0,2041.0,2000.0,2663874.0,
1677.0,1692.0,2043.0,2007.0,2663878.0,
1678.0,1692.0,2041.0,2020.0,2663881.0,
1679.0,1690.0,2039.0,2027.0,2663885.0,
1678.0,1693.0,2040.0,2041.0,2663888.0,
1679.0,1686.0,2042.0,2054.0,2663892.0,
1679.0,1693.0,2042.0,2064.0,2663896.0,
1678.0,1691.0,2045.0,2075.0,2663899.0,
1678.0,1693.0,2041.0,2090.0,2663903.0,
1679.0,1691.0,2041.0,2100.0,2663907.0,
1678.0,1692.0,2041.0,2115.0,2663910.0,
1678.0,1692.0,2042.0,2130.0,2663914.0,
1679.0,1690.0,2045.0,2140.0,2663917.0,
1679.0,1691.0,2045.0,2155.0,2663921.0,
1679.0,1692.0,2043.0,2171.0,2663925.0,
1679.0,1691.0,2044.0,2187.0,2663928.0,
1680.0,1691.0,2044.0,2204.0,2663932.0,
1678.0,1691.0,2045.0,2221.0,2663936.0,
1679.0,1691.0,2048.0,2239.0,2663939.0,
1678.0,1691.0,2049.0,2256.0,2663943.0,
1681.0,1689.0,2054.0,2273.0,2663947.0,
1679.0,1692.0,2058.0,2290.0,2663950.0,
1674.0,1692.0,2062.0,2310.0,2663954.0,
1679.0,1691.0,2069.0,2326.0,2663957.0,
1678.0,1689.0,2076.0,2342.0,2663961.0,
1679.0,1692.0,2081.0,2357.0,2663965.0,
1679.0,1690.0,2086.0,2369.0,2663968.0,
1677.0,1693.0,2093.0,2384.0,2663972.0,
1679.0,1691.0,2100.0,2398.0,2663976.0,
1679.0,1691.0,2103.0,2411.0,2663979.0,
1679.0,1690.0,2110.0,2421.0,2663983.0,
1680.0,1690.0,2113.0,2428.0,2663987.0,
1679.0,1691.0,2120.0,2441.0,2663990.0,
1679.0,1691.0,2121.0,2449.0,2663994.0,
1679.0,1688.0,2126.0,2455.0,2663997.0,
1679.0,1691.0,2130.0,2465.0,2664001.0,
1680.0,1689.0,2134.0,2468.0,2664005.0,
1679.0,1691.0,2138.0,2474.0,2664008.0,
1679.0,1691.0,2141.0,2480.0,2664012.0,
1680.0,1688.0,2146.0,2486.0,2664016.0,
1678.0,1691.0,2148.0,2487.0,2664019.0,
1674.0,1690.0,2156.0,2494.0,2664023.0,
1679.0,1690.0,2160.0,2487.0,2664026.0,
1679.0,1692.0,2165.0,2494.0,2664030.0,
1679.0,1690.0,2168.0,2496.0,2664034.0,
1680.0,1691.0,2171.0,2500.0,2664037.0,
1680.0,1693.0,2175.0,2501.0,2664041.0,
1680.0,1690.0,2177.0,2502.0,2664045.0,
1679.0,1686.0,2181.0,2504.0,2664048.0,
1678.0,1690.0,2183.0,2501.0,2664052.0,
1681.0,1689.0,2187.0,2500.0,2664056.0,
1680.0,1691.0,2191.0,2499.0,2664059.0,
1681.0,1690.0,2195.0,2497.0,2664063.0,
1679.0,1692.0,2197.0,2489.0,2664066.0,
1680.0,1692.0,2200.0,2485.0,2664070.0,
1679.0,1692.0,2201.0,2480.0,2664074.0,
1680.0,1690.0,2207.0,2474.0,2664077.0,
1679.0,1691.0,2209.0,2469.0,2664081.0,
1680.0,1693.0,2214.0,2463.0,2664085.0,
1681.0,1692.0,2215.0,2456.0,2664088.0,
1680.0,1692.0,2220.0,2451.0,2664092.0,
1676.0,1690.0,2226.0,2444.0,2664096.0,
1680.0,1691.0,2228.0,2435.0,2664099.0,
1680.0,1692.0,2232.0,2428.0,2664103.0,
1681.0,1691.0,2235.0,2417.0,2664106.0,
1680.0,1693.0,2238.0,2410.0,2664110.0,
1681.0,1692.0,2243.0,2402.0,2664114.0,
1680.0,1695.0,2246.0,2393.0,2664117.0,
1680.0,1692.0,2248.0,2381.0,2664121.0,
1678.0,1691.0,2251.0,2371.0,2664125.0,
1679.0,1695.0,2253.0,2362.0,2664128.0,
1680.0,1694.0,2256.0,2351.0,2664132.0,
1680.0,1691.0,2260.0,2342.0,2664136.0,
1681.0,1693.0,2256.0,2326.0,2664139.0,
1681.0,1690.0,2252.0,2316.0,2664143.0,
1681.0,1696.0,2254.0,2309.0,2664146.0,
1680.0,1692.0,2256.0,2297.0,2664150.0,
1676.0,1691.0,2247.0,2287.0,2664154.0,
1680.0,1692.0,2244.0,2275.0,2664157.0,
1680.0,1690.0,2239.0,2264.0,2664161.0,
1679.0,1692.0,2236.0,2251.0,2664165.0,
1681.0,1690.0,2231.0,2245.0,2664168.0,
1681.0,1692.0,2226.0,2236.0,2664172.0,
1680.0,1688.0,2220.0,2226.0,2664175.0,
1680.0,1690.0,2216.0,2221.0,2664179.0,
1680.0,1691.0,2207.0,2210.0,2664183.0,
1680.0,1689.0,2203.0,2203.0,2664186.0,
1681.0,1693.0,2194.0,2196.0,2664190.0,
1681.0,1691.0,2193.0,2190.0,2664194.0,
1681.0,1688.0,2186.0,2186.0,2664197.0,
1681.0,1691.0,2181.0,2180.0,2664201.0,
1681.0,1691.0,2179.0,2175.0,2664205.0,
1681.0,1692.0,2170.0,2172.0,2664208.0,
1681.0,1690.0,2169.0,2168.0,2664212.0,
1681.0,1691.0,2165.0,2166.0,2664215.0,
1681.0,1690.0,2161.0,2167.0,2664219.0,
1681.0,1690.0,2159.0,2162.0,2664223.0,
1682.0,1691.0,2155.0,2156.0,2664226.0,
1680.0,1692.0,2155.0,2154.0,2664230.0,
1679.0,1689.0,2153.0,2149.0,2664234.0,
1681.0,1690.0,2149.0,2146.0,2664237.0,
1681.0,1690.0,2150.0,2145.0,2664241.0,
1680.0,1691.0,2147.0,2144.0,2664245.0,
1681.0,1691.0,2148.0,2139.0,2664248.0,
1679.0,1691.0,2147.0,2133.0,2664252.0,
1681.0,1692.0,2147.0,2127.0,2664255.0,
1680.0,1690.0,2146.0,2118.0,2664259.0,
1680.0,1691.0,2147.0,2111.0,2664263.0,
1682.0,1691.0,2147.0,2106.0,2664266.0,
1680.0,1690.0,2147.0,2101.0,2664270.0,
1684.0,1691.0,2147.0,2097.0,2664274.0,
1681.0,1696.0,2151.0,2089.0,2664277.0,
1682.0,1691.0,2152.0,2086.0,2664281.0,
1680.0,1690.0,2153.0,2083.0,2664285.0,
1681.0,1692.0,2155.0,2076.0,2664288.0,
1686.0,1691.0,2159.0,2074.0,2664292.0,
1681.0,1690.0,2157.0,2065.0,2664295.0,
1681.0,1690.0,2160.0,2062.0,2664299.0,
1681.0,1690.0,2162.0,2057.0,2664303.0,
1682.0,1690.0,2165.0,2051.0,2664306.0,
1682.0,1690.0,2165.0,2039.0,2664310.0,
1681.0,1690.0,2163.0,2039.0,2664314.0,
1681.0,1689.0,2162.0,2034.0,2664317.0,
1678.0,1690.0,2161.0,2029.0,2664321.0,
1681.0,1690.0,2162.0,2026.0,2664325.0,
1682.0,1690.0,2161.0,2022.0,2664328.0,
1680.0,1691.0,2161.0,2016.0,2664332.0,
1681.0,1694.0,2163.0,2012.0,2664335.0,
1681.0,1691.0,2157.0,2006.0,2664339.0,
1682.0,1690.0,2155.0,2001.0,2664343.0,
1681.0,1691.0,2151.0,1999.0,2664346.0,
1680.0,1690.0,2149.0,1994.0,2664350.0,
1682.0,1691.0,2148.0,1991.0,2664354.0,
1681.0,1691.0,2143.0,1986.0,2664357.0,
1681.0,1690.0,2139.0,1985.0,2664361.0,
1681.0,1685.0,2139.0,1978.0,2664364.0,
1681.0,1690.0,2136.0,1974.0,2664368.0,
1681.0,1689.0,2134.0,1970.0,2664372.0,
1682.0,1689.0,2132.0,1967.0,2664375.0,
1682.0,1689.0,2130.0,1963.0,2664379.0,
1680.0,1690.0,2129.0,1958.0,2664383.0,
1681.0,1690.0,2129.0,1958.0,2664386.0,
1680.0,1691.0,2129.0,1959.0,2664390.0,
1680.0,1691.0,2125.0,1959.0,2664394.0,
1679.0,1691.0,2125.0,1953.0,2664397.0,
1681.0,1690.0,2124.0,1950.0,2664401.0,
1680.0,1691.0,2125.0,1950.0,2664404.0,
1680.0,1688.0,2119.0,1948.0,2664408.0,
1682.0,1689.0,2117.0,1948.0,2664412.0,
1682.0,1689.0,2113.0,1945.0,2664415.0,
1681.0,1689.0,2119.0,1945.0,2664419.0,
1682.0,1688.0,2117.0,1945.0,2664423.0,
1681.0,1691.0,2114.0,1945.0,2664426.0,
1682.0,1689.0,2112.0,1945.0,2664430.0,
1681.0,1686.0,2110.0,1945.0,2664434.0,
1681.0,1688.0,2108.0,1946.0,2664437.0,
1681.0,1689.0,2107.0,1943.0,2664441.0,
1681.0,1688.0,2103.0,1947.0,2664444.0,
1682.0,1688.0,2102.0,1948.0,2664448.0,
1681.0,1688.0,2100.0,1951.0,2664452.0,
1681.0,1689.0,2097.0,1951.0,2664455.0,
1682.0,1689.0,2096.0,1952.0,2664459.0,
1680.0,1690.0,2095.0,1958.0,2664463.0,
1682.0,1688.0,2093.0,1956.0,2664466.0,
1682.0,1687.0,2091.0,1958.0,2664470.0,
1681.0,1690.0,2088.0,1958.0,2664474.0,
1681.0,1685.0,2086.0,1959.0,2664477.0,
1681.0,1691.0,2085.0,1958.0,2664481.0,
1681.0,1688.0,2082.0,1959.0,2664484.0,
1681.0,1688.0,2079.0,1961.0,2664488.0,
1683.0,1689.0,2078.0,1959.0,2664492.0,
1681.0,1688.0,2074.0,1958.0,2664495.0,
1681.0,1688.0,2069.0,1955.0,2664499.0,
1681.0,1684.0,2067.0,1955.0,2664503.0,
1681.0,1690.0,2060.0,1952.0,2664506.0,
1682.0,1689.0,2054.0,1954.0,2664510.0,
1682.0,1687.0,2050.0,1953.0,2664513.0,
1682.0,1687.0,2048.0,1949.0,2664517.0,
1679.0,1688.0,2040.0,1952.0,2664521.0,
1681.0,1689.0,2036.0,1954.0,2664524.0,
1681.0,1691.0,2031.0,1955.0,2664528.0,
1680.0,1688.0,2030.0,1953.0,2664532.0,
1681.0,1688.0,2023.0,1954.0,2664535.0,
1682.0,1688.0,2021.0,1953.0,2664539.0,
1681.0,1687.0,2017.0,1952.0,2664543.0,
1682.0,1686.0,2013.0,1950.0,2664546.0,
1681.0,1689.0,2011.0,1951.0,2664550.0,
1681.0,1688.0,2006.0,1946.0,2664553.0,
1681.0,1686.0,2006.0,1947.0,2664557.0,
1683.0,1688.0,2003.0,1948.0,2664561.0,
1682.0,1687.0,2002.0,1945.0,2664564.0,
1681.0,1688.0,2001.0,1946.0,2664568.0,
1682.0,1688.0,2003.0,1946.0,2664572.0,
1682.0,1687.0,2000.0,1947.0,2664575.0,
1676.0,1688.0,1998.0,1949.0,2664579.0,
1679.0,1685.0,1999.0,1953.0,2664583.0,
1682.0,1689.0,2000.0,1950.0,2664586.0,
1682.0,1687.0,2001.0,1952.0,2664590.0,
1681.0,1687.0,2003.0,1953.0,2664593.0,
1682.0,1687.0,2002.0,1950.0,2664597.0,
1682.0,1688.0,2003.0,1942.0,2664601.0,
1679.0,1686.0,2004.0,1949.0,2664604.0,
1682.0,1688.0,1999.0,1952.0,2664608.0,
1684.0,1686.0,2001.0,1954.0,2664612.0,
1682.0,1687.0,1999.0,1955.0,2664615.0,
1682.0,1687.0,1998.0,1961.0,2664619.0,
1682.0,1687.0,1996.0,1963.0,2664623.0,
1681.0,1687.0,1999.0,1970.0,2664626.0,
1678.0,1687.0,2000.0,1974.0,2664630.0,
1682.0,1685.0,2002.0,1980.0,2664633.0,
1682.0,1688.0,2003.0,1986.0,2664637.0,
1683.0,1686.0,2008.0,1993.0,2664641.0,
1682.0,1686.0,2012.0,2004.0,2664644.0,
1682.0,1687.0,2013.0,2013.0,2664648.0,
1681.0,1687.0,2017.0,2026.0,2664652.0,
1682.0,1688.0,2020.0,2039.0,2664655.0,
1680.0,1687.0,2022.0,2048.0,2664659.0,
1682.0,1690.0,2024.0,2062.0,2664662.0,
1683.0,1688.0,2029.0,2079.0,2664666.0,
1682.0,1687.0,2030.0,2093.0,2664670.0,
1682.0,1689.0,2034.0,2111.0,2664673.0,
1683.0,1688.0,2037.0,2129.0,2664677.0,
1683.0,1686.0,2043.0,2148.0,2664681.0,
1683.0,1686.0,2045.0,2166.0,2664684.0,
1682.0,1685.0,2050.0,2186.0,2664688.0,
1683.0,1689.0,2052.0,2208.0,2664692.0,
1683.0,1689.0,2060.0,2228.0,2664695.0,
1682.0,1687.0,2065.0,2248.0,2664699.0,
1683.0,1686.0,2076.0,2271.0,2664702.0,
1683.0,1686.0,2082.0,2290.0,2664706.0,
1682.0,1692.0,2090.0,2309.0,2664710.0,
1687.0,1687.0,2098.0,2328.0,2664713.0,
1683.0,1688.0,2105.0,2347.0,2664717.0,
1683.0,1688.0,2115.0,2364.0,2664721.0,
1683.0,1689.0,2128.0,2382.0,2664724.0,
1683.0,1688.0,2137.0,2400.0,2664728.0,
1683.0,1687.0,2150.0,2417.0,2664732.0,
1682.0,1687.0,2161.0,2434.0,2664735.0,
1683.0,1688.0,2171.0,2448.0,2664739.0,
1683.0,1687.0,2184.0,2461.0,2664742.0,
1684.0,1688.0,2196.0,2475.0,2664746.0,
1685.0,1684.0,2211.0,2486.0,2664750.0,
1684.0,1685.0,2226.0,2496.0,2664753.0,
1683.0,1686.0,2238.0,2509.0,2664757.0,
1682.0,1686.0,2249.0,2519.0,2664761.0,
1684.0,1684.0,2261.0,2533.0,2664764.0,
1683.0,1687.0,2269.0,2544.0,2664768.0,
1684.0,1685.0,2279.0,2554.0,2664772.0,
1683.0,1685.0,2285.0,2564.0,2664775.0,
1683.0,1685.0,2289.0,2569.0,2664779.0,
1681.0,1685.0,2296.0,2576.0,2664782.0,
1684.0,1685.0,2301.0,2584.0,2664786.0,
1683.0,1686.0,2303.0,2588.0,2664790.0,
1683.0,1686.0,2306.0,2592.0,2664793.0,
1684.0,1684.0,2306.0,2594.0,2664797.0,
1685.0,1687.0,2309.0,2597.0,2664801.0,
1684.0,1684.0,2306.0,2598.0,2664804.0,
1684.0,1685.0,2305.0,2600.0,2664808.0,
1688.0,1686.0,2305.0,2599.0,2664811.0,
1683.0,1685.0,2303.0,2600.0,2664815.0,
1684.0,1685.0,2301.0,2601.0,2664819.0,
1682.0,1684.0,2300.0,2600.0,2664822.0,
1683.0,1683.0,2299.0,2599.0,2664826.0,
1685.0,1685.0,2297.0,2599.0,2664830.0,
1684.0,1683.0,2297.0,2595.0,2664833.0,
1685.0,1684.0,2293.0,2591.0,2664837.0,
1684.0,1682.0,2291.0,2587.0,2664841.0,
1684.0,1682.0,2289.0,2579.0,2664844.0,
1686.0,1684.0,2290.0,2565.0,2664848.0,
1685.0,1678.0,2288.0,2560.0,2664851.0,
1684.0,1683.0,2285.0,2549.0,2664855.0,
1684.0,1685.0,2287.0,2540.0,2664859.0,
1685.0,1683.0,2287.0,2527.0,2664862.0,
1685.0,1683.0,2286.0,2516.0,2664866.0,
1685.0,1678.0,2286.0,2504.0,2664870.0,
1685.0,1678.0,2287.0,2492.0,2664873.0,
1684.0,1683.0,2293.0,2477.0,2664877.0,
1685.0,1683.0,2284.0,2464.0,2664881.0,
1684.0,1682.0,2283.0,2445.0,2664884.0,
1684.0,1683.0,2283.0,2430.0,2664888.0,
1685.0,1682.0,2280.0,2414.0,2664891.0,
1684.0,1683.0,2277.0,2396.0,2664895.0,
1685.0,1683.0,2280.0,2381.0,2664899.0,
1684.0,1681.0,2278.0,2367.0,2664902.0,
1685.0,1679.0,2277.0,2353.0,2664906.0,
1680.0,1681.0,2277.0,2341.0,2664910.0,
1678.0,1682.0,2275.0,2324.0,2664913.0,
1685.0,1682.0,2272.0,2308.0,2664917.0,
1684.0,1682.0,2273.0,2295.0,2664921.0,
1685.0,1681.0,2271.0,2279.0,2664924.0,
1685.0,1681.0,2271.0,2266.0,2664928.0,
1685.0,1681.0,2267.0,2255.0,2664931.0,
1686.0,1683.0,2265.0,2241.0,2664935.0,
1684.0,1683.0,2264.0,2228.0,2664939.0,
1685.0,1683.0,2263.0,2219.0,2664942.0,
1685.0,1683.0,2262.0,2207.0,2664946.0,
1686.0,1682.0,2261.0,2197.0,2664950.0,
1685.0,1682.0,2256.0,2187.0,2664953.0,
1683.0,1682.0,2255.0,2183.0,2664957.0,
1685.0,1682.0,2253.0,2176.0,2664960.0,
1684.0,1683.0,2252.0,2170.0,2664964.0,
1682.0,1682.0,2250.0,2163.0,2664968.0,
1685.0,1683.0,2246.0,2159.0,2664971.0,
1686.0,1682.0,2244.0,2150.0,2664975.0,
1686.0,1682.0,2242.0,2146.0,2664979.0,
1684.0,1683.0,2237.0,2143.0,2664982.0,
1684.0,1682.0,2238.0,2141.0,2664986.0,
1689.0,1682.0,2233.0,2136.0,2664990.0,
1685.0,1683.0,2235.0,2133.0,2664993.0,
1686.0,1681.0,2237.0,2128.0,2664997.0,
1685.0,1683.0,2234.0,2128.0,2665000.0,
1686.0,1680.0,2236.0,2125.0,2665004.0,
1680.0,1682.0,2237.0,2126.0,2665008.0,
1686.0,1681.0,2235.0,2125.0,2665011.0,
1684.0,1681.0,2239.0,2123.0,2665015.0,
1685.0,1682.0,2238.0,2122.0,2665019.0,
1684.0,1680.0,2237.0,2119.0,2665022.0,
1686.0,1681.0,2236.0,2118.0,2665026.0,
1685.0,1680.0,2235.0,2117.0,2665030.0,
1685.0,1680.0,2232.0,2116.0,2665033.0,
1686.0,1681.0,2230.0,2114.0,2665037.0,
1684.0,1678.0,2226.0,2113.0,2665040.0,
1687.0,1681.0,2222.0,2113.0,2665044.0,
1686.0,1682.0,2218.0,2113.0,2665048.0,
1682.0,1682.0,2214.0,2111.0,2665051.0,
1685.0,1681.0,2211.0,2107.0,2665055.0,
1685.0,1680.0,2205.0,2107.0,2665059.0,
1683.0,1681.0,2204.0,2105.0,2665062.0,
1686.0,1681.0,2199.0,2102.0,2665066.0,
1683.0,1680.0,2193.0,2097.0,2665070.0,
1685.0,1682.0,2187.0,2095.0,2665073.0,
1684.0,1680.0,2182.0,2088.0,2665077.0,
1685.0,1681.0,2179.0,2084.0,2665080.0,
1684.0,1682.0,2179.0,2078.0,2665084.0,
1684.0,1680.0,2172.0,2073.0,2665088.0,
1686.0,1679.0,2167.0,2067.0,2665091.0,
1685.0,1680.0,2163.0,2058.0,2665095.0,
1685.0,1680.0,2152.0,2053.0,2665099.0,
1685.0,1680.0,2148.0,2046.0,2665102.0,
1685.0,1681.0,2144.0,2039.0,2665106.0,
1689.0,1680.0,2138.0,2032.0,2665110.0,
1685.0,1682.0,2131.0,2028.0,2665113.0,
1686.0,1680.0,2125.0,2021.0,2665117.0,
1689.0,1680.0,2119.0,2017.0,2665120.0,
1686.0,1679.0,2117.0,2010.0,2665124.0,
1684.0,1680.0,2112.0,2005.0,2665128.0,
1685.0,1683.0,2109.0,2005.0,2665131.0,
1686.0,1680.0,2108.0,1999.0,2665135.0,
1686.0,1680.0,2106.0,1993.0,2665139.0,
1686.0,1681.0,2104.0,1991.0,2665142.0,
1685.0,1681.0,2102.0,1990.0,2665146.0,
1686.0,1681.0,2100.0,1988.0,2665149.0,
1686.0,1679.0,2098.0,1990.0,2665153.0,
1685.0,1680.0,2097.0,1985.0,2665157.0,
1687.0,1678.0,2095.0,1987.0,2665160.0,
1686.0,1681.0,2098.0,1984.0,2665164.0,
1686.0,1679.0,2095.0,1986.0,2665168.0,
1685.0,1680.0,2095.0,1981.0,2665171.0,
1686.0,1680.0,2098.0,1979.0,2665175.0,
1685.0,1680.0,2100.0,1982.0,2665179.0,
1684.0,1678.0,2100.0,1978.0,2665182.0,
1687.0,1679.0,2100.0,1980.0,2665186.0,
1686.0,1679.0,2100.0,1981.0,2665189.0,
1686.0,1680.0,2104.0,1977.0,2665193.0,
1682.0,1680.0,2104.0,1978.0,2665197.0,
1686.0,1682.0,2107.0,1977.0,2665200.0,
1685.0,1680.0,2108.0,1979.0,2665204.0,
1686.0,1679.0,2111.0,1978.0,2665208.0,
1685.0,1679.0,2113.0,1978.0,2665211.0,
1685.0,1680.0,2113.0,1976.0,2665215.0,
1687.0,1679.0,2112.0,1977.0,2665219.0,
1686.0,1680.0,2114.0,1977.0,2665222.0,
1685.0,1680.0,2113.0,1974.0,2665226.0,
1688.0,1681.0,2112.0,1977.0,2665229.0,
1686.0,1680.0,2110.0,1974.0,2665233.0,
1689.0,1680.0,2109.0,1971.0,2665237.0,
1686.0,1681.0,2107.0,1971.0,2665240.0,
1688.0,1680.0,2110.0,1969.0,2665244.0,
1688.0,1680.0,2098.0,1969.0,2665248.0,
1685.0,1681.0,2106.0,1962.0,2665251.0,
1687.0,1676.0,2103.0,1961.0,2665255.0,
1686.0,1682.0,2101.0,1962.0,2665259.0,
1685.0,1679.0,2096.0,1957.0,2665262.0,
1686.0,1680.0,2094.0,1956.0,2665266.0,
1687.0,1678.0,2091.0,1957.0,2665269.0,
1686.0,1680.0,2087.0,1956.0,2665273.0,
1687.0,1680.0,2085.0,1955.0,2665277.0,
1686.0,1680.0,2081.0,1955.0,2665280.0,
1687.0,1680.0,2078.0,1953.0,2665284.0,
1687.0,1680.0,2074.0,1948.0,2665288.0,
1686.0,1678.0,2072.0,1947.0,2665291.0,
1686.0,1682.0,2065.0,1942.0,2665295.0,
1687.0,1681.0,2065.0,1945.0,2665298.0,
1686.0,1679.0,2061.0,1945.0,2665302.0,
1687.0,1678.0,2054.0,1948.0,2665306.0,
1686.0,1681.0,2053.0,1947.0,2665309.0,
1686.0,1678.0,2052.0,1947.0,2665313.0,
1687.0,1679.0,2046.0,1949.0,2665317.0,
1686.0,1680.0,2054.0,1948.0,2665320.0,
1686.0,1681.0,2044.0,1947.0,2665324.0,
1689.0,1678.0,2042.0,1942.0,2665328.0,
1686.0,1679.0,2040.0,1941.0,2665331.0,
1688.0,1680.0,2040.0,1939.0,2665335.0,
1686.0,1678.0,2039.0,1938.0,2665338.0,
1687.0,1679.0,2034.0,1937.0,2665342.0,
1687.0,1680.0,2037.0,1939.0,2665346.0,
1686.0,1678.0,2035.0,1940.0,2665349.0,
1687.0,1677.0,2034.0,1939.0,2665353.0,
1686.0,1679.0,2037.0,1941.0,2665357.0,
1688.0,1678.0,2038.0,1940.0,2665360.0,
1687.0,1680.0,2038.0,1938.0,2665364.0,
1687.0,1679.0,2039.0,1937.0,2665368.0,
1686.0,1678.0,2040.0,1934.0,2665371.0,
1687.0,1680.0,2043.0,1934.0,2665375.0,
1687.0,1679.0,2042.0,1930.0,2665378.0,
1688.0,1680.0,2045.0,1926.0,2665382.0,
1687.0,1678.0,2045.0,1923.0,2665386.0,
1686.0,1680.0,2047.0,1921.0,2665389.0,
1689.0,1679.0,2046.0,1919.0,2665393.0,
1687.0,1677.0,2046.0,1916.0,2665397.0,
1688.0,1678.0,2046.0,1915.0,2665400.0,
1687.0,1678.0,2046.0,1913.0,2665404.0,
1685.0,1678.0,2046.0,1915.0,2665408.0,
1687.0,1678.0,2040.0,1913.0,2665411.0,
1688.0,1679.0,2038.0,1911.0,2665415.0,
1687.0,1676.0,2033.0,1910.0,2665418.0,
1689.0,1678.0,2034.0,1912.0,2665422.0,
1681.0,1677.0,2028.0,1914.0,2665426.0,
1687.0,1678.0,2019.0,1913.0,2665429.0,
1687.0,1677.0,2013.0,1910.0,2665433.0,
1687.0,1680.0,2009.0,1908.0,2665437.0,
1687.0,1678.0,2004.0,1910.0,2665440.0,
1687.0,1675.0,1997.0,1908.0,2665444.0,
1688.0,1681.0,1992.0,1907.0,2665448.0,
1688.0,1682.0,1990.0,1911.0,2665451.0,
1688.0,1678.0,1985.0,1909.0,2665455.0,
1687.0,1679.0,1981.0,1915.0,2665458.0,
1688.0,1677.0,1978.0,1914.0,2665462.0,
1688.0,1677.0,1978.0,1919.0,2665466.0,
1687.0,1678.0,1973.0,1920.0,2665469.0,
1687.0,1677.0,1974.0,1920.0,2665473.0,
1688.0,1678.0,1970.0,1923.0,2665477.0,
1688.0,1678.0,1968.0,1925.0,2665480.0,
1687.0,1678.0,1968.0,1924.0,2665484.0,
1687.0,1680.0,1967.0,1927.0,2665487.0,
1689.0,1678.0,1963.0,1931.0,2665491.0,
1688.0,1676.0,1961.0,1929.0,2665495.0,
1687.0,1679.0,1956.0,1932.0,2665498.0,
1687.0,1679.0,1955.0,1936.0,2665502.0,
1693.0,1677.0,1953.0,1944.0,2665506.0,
1686.0,1679.0,1953.0,1952.0,2665509.0,
1688.0,1677.0,1951.0,1961.0,2665513.0,
1688.0,1678.0,1951.0,1974.0,2665517.0,
1688.0,1679.0,1951.0,1984.0,2665520.0,
1688.0,1677.0,1950.0,1998.0,2665524.0,
1689.0,1679.0,1949.0,2014.0,2665527.0,
1689.0,1678.0,1948.0,2025.0,2665531.0,
1690.0,1678.0,1952.0,2045.0,2665535.0,
1687.0,1677.0,1947.0,2060.0,2665538.0,
1689.0,1679.0,1948.0,2076.0,2665542.0,
1688.0,1677.0,1947.0,2090.0,2665546.0,
1687.0,1678.0,1949.0,2117.0,2665549.0,
1688.0,1678.0,1943.0,2135.0,2665553.0,
1688.0,1677.0,1945.0,2155.0,2665557.0,
1688.0,1680.0,1943.0,2177.0,2665560.0,
1688.0,1679.0,1942.0,2197.0,2665564.0,
1687.0,1678.0,1940.0,2219.0,2665567.0,
1688.0,1679.0,1943.0,2238.0,2665571.0,
1688.0,1678.0,1941.0,2260.0,2665575.0,
1687.0,1678.0,1941.0,2282.0,2665578.0,
1688.0,1677.0,1943.0,2306.0,2665582.0,
1689.0,1679.0,1948.0,2328.0,2665586.0,
1686.0,1679.0,1952.0,2347.0,2665589.0,
1689.0,1679.0,1958.0,2367.0,2665593.0,
1688.0,1680.0,1963.0,2387.0,2665597.0,
1689.0,1679.0,1967.0,2407.0,2665600.0,
1688.0,1678.0,1980.0,2425.0,2665604.0,
1688.0,1679.0,1982.0,2443.0,2665607.0,
1689.0,1679.0,1991.0,2461.0,2665611.0,
1689.0,1682.0,2001.0,2478.0,2665615.0,
1689.0,1681.0,2014.0,2495.0,2665618.0,
1688.0,1679.0,2025.0,2514.0,2665622.0,
1689.0,1679.0,2037.0,2523.0,2665626.0,
1690.0,1677.0,2049.0,2536.0,2665629.0,
1690.0,1679.0,2063.0,2547.0,2665633.0,
1689.0,1678.0,2073.0,2560.0,2665636.0,
1690.0,1677.0,2086.0,2571.0,2665640.0,
1689.0,1682.0,2099.0,2581.0,2665644.0,
1689.0,1678.0,2113.0,2592.0,2665647.0,
1690.0,1678.0,2125.0,2601.0,2665651.0,
1690.0,1679.0,2137.0,2610.0,2665655.0,
1689.0,1679.0,2151.0,2616.0,2665658.0,
1689.0,1679.0,2164.0,2625.0,2665662.0,
1689.0,1681.0,2177.0,2633.0,2665666.0,
1690.0,1677.0,2191.0,2640.0,2665669.0,
1689.0,1677.0,2201.0,2645.0,2665673.0,
1690.0,1677.0,2217.0,2647.0,2665676.0,
1691.0,1676.0,2227.0,2651.0,2665680.0,
1689.0,1679.0,2239.0,2651.0,2665684.0,
1690.0,1678.0,2252.0,2653.0,2665687.0,
1690.0,1677.0,2265.0,2653.0,2665691.0,
1690.0,1678.0,2277.0,2653.0,2665695.0,
1689.0,1677.0,2289.0,2647.0,2665698.0,
1689.0,1678.0,2298.0,2643.0,2665702.0,
1690.0,1677.0,2308.0,2640.0,2665706.0,
1689.0,1677.0,2315.0,2634.0,2665709.0,
1691.0,1677.0,2326.0,2628.0,2665713.0,
1690.0,1672.0,2335.0,2621.0,2665716.0,
1688.0,1677.0,2342.0,2612.0,2665720.0,
1690.0,1676.0,2348.0,2603.0,2665724.0,
1690.0,1678.0,2354.0,2593.0,2665727.0,
1691.0,1678.0,2359.0,2581.0,2665731.0,
1691.0,1672.0,2365.0,2570.0,2665735.0,
1690.0,1677.0,2369.0,2557.0,2665738.0,
1691.0,1678.0,2372.0,2539.0,2665742.0,
1689.0,1679.0,2371.0,2522.0,2665745.0,
1691.0,1683.0,2375.0,2510.0,2665749.0,
1689.0,1678.0,2374.0,2495.0,2665753.0,
1690.0,1678.0,2378.0,2480.0,2665756.0,
1690.0,1677.0,2377.0,2465.0,2665760.0,
1691.0,1677.0,2374.0,2449.0,2665764.0,
1690.0,1678.0,2372.0,2433.0,2665767.0,
1691.0,1677.0,2368.0,2416.0,2665771.0,
1690.0,1680.0,2361.0,2401.0,2665775.0,
1690.0,1676.0,2356.0,2387.0,2665778.0,
1689.0,1677.0,2349.0,2374.0,2665782.0,
1689.0,1676.0,2342.0,2359.0,2665785.0,
1691.0,1678.0,2334.0,2352.0,2665789.0,
1690.0,1676.0,2328.0,2334.0,2665793.0,
1690.0,1677.0,2318.0,2321.0,2665796.0,
1691.0,1678.0,2311.0,2309.0,2665800.0,
1691.0,1678.0,2303.0,2296.0,2665804.0,
1690.0,1676.0,2296.0,2287.0,2665807.0,
1689.0,1678.0,2288.0,2276.0,2665811.0,
1690.0,1677.0,2281.0,2267.0,2665815.0,
1691.0,1677.0,2273.0,2256.0,2665818.0,
1689.0,1677.0,2270.0,2250.0,2665822.0,
1690.0,1673.0,2261.0,2241.0,2665825.0,
1690.0,1675.0,2254.0,2230.0,2665829.0,
1691.0,1678.0,2249.0,2219.0,2665833.0,
1691.0,1679.0,2241.0,2212.0,2665836.0,
1690.0,1677.0,2236.0,2205.0,2665840.0,
1688.0,1677.0,2233.0,2194.0,2665844.0,
1689.0,1679.0,2228.0,2187.0,2665847.0,
1692.0,1676.0,2221.0,2179.0,2665851.0,
1690.0,1677.0,2219.0,2170.0,2665855.0,
1690.0,1676.0,2216.0,2165.0,2665858.0,
1691.0,1678.0,2211.0,2157.0,2665862.0,
1690.0,1679.0,2206.0,2152.0,2665865.0,
1690.0,1676.0,2207.0,2146.0,2665869.0,
1690.0,1677.0,2198.0,2140.0,2665873.0,
1690.0,1678.0,2196.0,2135.0,2665876.0,
1689.0,1675.0,2192.0,2128.0,2665880.0,
1691.0,1670.0,2190.0,2120.0,2665884.0,
1691.0,1676.0,2186.0,2117.0,2665887.0,
1691.0,1673.0,2185.0,2110.0,2665891.0,
1690.0,1678.0,2181.0,2103.0,2665894.0,
1691.0,1678.0,2181.0,2097.0,2665898.0,
1690.0,1671.0,2176.0,2090.0,2665902.0,
1684.0,1676.0,2173.0,2087.0,2665905.0,
1691.0,1678.0,2170.0,2082.0,2665909.0,
1691.0,1677.0,2168.0,2079.0,2665913.0,
1691.0,1675.0,2167.0,2076.0,2665916.0,
1690.0,1678.0,2165.0,2071.0,2665920.0,
1690.0,1675.0,2164.0,2068.0,2665924.0,
1691.0,1678.0,2163.0,2067.0,2665927.0,
1692.0,1674.0,2162.0,2061.0,2665931.0,
1692.0,1675.0,2160.0,2058.0,2665934.0,
1690.0,1678.0,2159.0,2056.0,2665938.0,
1691.0,1675.0,2158.0,2054.0,2665942.0,
1691.0,1676.0,2159.0,2053.0,2665945.0,
1691.0,1677.0,2160.0,2050.0,2665949.0,
1689.0,1675.0,2160.0,2050.0,2665953.0,
1691.0,1676.0,2161.0,2050.0,2665956.0,
1691.0,1677.0,2163.0,2047.0,2665960.0,
1690.0,1675.0,2162.0,2043.0,2665964.0,
1690.0,1676.0,2162.0,2034.0,2665967.0,
1690.0,1677.0,2166.0,2032.0,2665971.0,
1690.0,1674.0,2166.0,2025.0,2665974.0,
1691.0,1676.0,2167.0,2022.0,2665978.0,
1691.0,1677.0,2169.0,2019.0,2665982.0,
1691.0,1677.0,2165.0,2016.0,2665985.0,
1691.0,1675.0,2166.0,2014.0,2665989.0,
1694.0,1677.0,2166.0,2010.0,2665993.0,
1691.0,1675.0,2167.0,2008.0,2665996.0,
1690.0,1676.0,2167.0,2007.0,2666000.0,
1690.0,1678.0,2166.0,2005.0,2666004.0,
1691.0,1678.0,2165.0,2003.0,2666007.0,
1690.0,1676.0,2169.0,1998.0,2666011.0,
1690.0,1676.0,2164.0,1997.0,2666014.0,
1690.0,1676.0,2163.0,1993.0,2666018.0,
1690.0,1674.0,2162.0,1989.0,2666022.0,
1690.0,1675.0,2162.0,1987.0,2666025.0,
1690.0,1679.0,2163.0,1983.0,2666029.0,
1691.0,1676.0,2161.0,1981.0,2666033.0,
1691.0,1674.0,2160.0,1981.0,2666036.0,
1692.0,1676.0,2161.0,1975.0,2666040.0,
1692.0,1676.0,2160.0,1975.0,2666043.0,
1690.0,1676.0,2158.0,1975.0,2666047.0,
1691.0,1676.0,2157.0,1967.0,2666051.0,
1691.0,1675.0,2153.0,1965.0,2666054.0,
1691.0,1676.0,2154.0,1965.0,2666058.0,
1690.0,1676.0,2149.0,1960.0,2666062.0,
1691.0,1675.0,2149.0,1956.0,2666065.0,
1692.0,1675.0,2145.0,1955.0,2666069.0,
1691.0,1677.0,2145.0,1949.0,2666073.0,
1692.0,1677.0,2140.0,1944.0,2666076.0,
1691.0,1677.0,2139.0,1940.0,2666080.0,
1697.0,1675.0,2138.0,1934.0,2666083.0,
1691.0,1678.0,2134.0,1930.0,2666087.0,
1692.0,1675.0,2133.0,1929.0,2666091.0,
1691.0,1677.0,2132.0,1928.0,2666094.0,
1690.0,1675.0,2132.0,1923.0,2666098.0,
1691.0,1677.0,2128.0,1923.0,2666102.0,
1692.0,1676.0,2127.0,1923.0,2666105.0,
1694.0,1676.0,2125.0,1922.0,2666109.0,
1693.0,1676.0,2123.0,1919.0,2666113.0,
1692.0,1676.0,2117.0,1917.0,2666116.0,
1692.0,1676.0,2114.0,1915.0,2666120.0,
1692.0,1678.0,2112.0,1916.0,2666123.0,
1691.0,1675.0,2108.0,1916.0,2666127.0,
1690.0,1676.0,2104.0,1916.0,2666131.0,
1691.0,1682.0,2104.0,1917.0,2666134.0,
1690.0,1675.0,2101.0,1918.0,2666138.0,
1692.0,1673.0,2101.0,1918.0,2666142.0,
1691.0,1675.0,2101.0,1915.0,2666145.0,
1691.0,1676.0,2097.0,1918.0,2666149.0,
1691.0,1675.0,2097.0,1916.0,2666153.0,
1691.0,1675.0,2095.0,1916.0,2666156.0,
1692.0,1676.0,2094.0,1916.0,2666160.0,
1692.0,1676.0,2095.0,1920.0,2666163.0,
1691.0,1674.0,2095.0,1921.0,2666167.0,
1692.0,1678.0,2094.0,1922.0,2666171.0,
1692.0,1677.0,2095.0,1926.0,2666174.0,
1692.0,1674.0,2094.0,1924.0,2666178.0,
1692.0,1674.0,2094.0,1926.0,2666182.0,
1692.0,1675.0,2092.0,1927.0,2666185.0,
1692.0,1673.0,2090.0,1923.0,2666189.0,
1692.0,1676.0,2091.0,1924.0,2666192.0,
1692.0,1677.0,2089.0,1922.0,2666196.0,
1689.0,1674.0,2088.0,1924.0,2666200.0,
1692.0,1675.0,2088.0,1925.0,2666203.0,
1692.0,1675.0,2084.0,1924.0,2666207.0,
1692.0,1675.0,2083.0,1928.0,2666211.0,
1692.0,1674.0,2082.0,1926.0,2666214.0,
1692.0,1674.0,2082.0,1926.0,2666218.0,
1694.0,1673.0,2077.0,1924.0,2666222.0,
1690.0,1676.0,2077.0,1921.0,2666225.0,
1692.0,1673.0,2076.0,1922.0,2666229.0,
1691.0,1675.0,2071.0,1918.0,2666232.0,
1693.0,1675.0,2071.0,1918.0,2666236.0,
1691.0,1677.0,2071.0,1914.0,2666240.0,
1692.0,1674.0,2065.0,1910.0,2666243.0,
1694.0,1674.0,2063.0,1906.0,2666247.0,
1691.0,1674.0,2063.0,1901.0,2666251.0,
1692.0,1675.0,2059.0,1899.0,2666254.0,
1691.0,1675.0,2054.0,1893.0,2666258.0,
1691.0,1673.0,2052.0,1892.0,2666262.0,
1689.0,1674.0,2050.0,1893.0,2666265.0,
1692.0,1674.0,2047.0,1891.0,2666269.0,
1691.0,1675.0,2043.0,1890.0,2666272.0,
1692.0,1674.0,2041.0,1889.0,2666276.0,
1692.0,1675.0,2037.0,1886.0,2666280.0,
1692.0,1674.0,2035.0,1883.0,2666283.0,
1692.0,1673.0,2032.0,1881.0,2666287.0,
1692.0,1671.0,2028.0,1877.0,2666291.0,
1694.0,1674.0,2027.0,1877.0,2666294.0,
1693.0,1673.0,2024.0,1878.0,2666298.0,
1692.0,1673.0,2021.0,1870.0,2666302.0,
1693.0,1675.0,2016.0,1870.0,2666305.0,
1692.0,1674.0,2015.0,1869.0,2666309.0,
1693.0,1677.0,2012.0,1865.0,2666312.0,
1693.0,1675.0,2008.0,1867.0,2666316.0,
1692.0,1674.0,2003.0,1860.0,2666320.0,
1693.0,1678.0,2003.0,1863.0,2666323.0,
1692.0,1674.0,1999.0,1863.0,2666327.0,
1692.0,1674.0,1995.0,1860.0,2666331.0,
1688.0,1674.0,1992.0,1860.0,2666334.0,
1692.0,1675.0,1988.0,1860.0,2666338.0,
1693.0,1676.0,1986.0,1858.0,2666341.0,
1692.0,1674.0,1984.0,1858.0,2666345.0,
1694.0,1676.0,1979.0,1860.0,2666349.0,
1690.0,1674.0,1978.0,1859.0,2666352.0,
1692.0,1675.0,1975.0,1863.0,2666356.0,
1692.0,1673.0,1971.0,1861.0,2666360.0,
1692.0,1673.0,1968.0,1862.0,2666363.0,
1693.0,1674.0,1964.0,1862.0,2666367.0,
1693.0,1674.0,1959.0,1863.0,2666371.0,
1694.0,1673.0,1958.0,1860.0,2666374.0,
1693.0,1674.0,1956.0,1858.0,2666378.0,
1695.0,1674.0,1952.0,1858.0,2666381.0,
1686.0,1672.0,1950.0,1862.0,2666385.0,
1694.0,1674.0,1949.0,1861.0,2666389.0,
1695.0,1672.0,1945.0,1868.0,2666392.0,
1692.0,1674.0,1945.0,1870.0,2666396.0,
1692.0,1674.0,1941.0,1869.0,2666400.0,
1693.0,1674.0,1941.0,1872.0,2666403.0,
1692.0,1674.0,1938.0,1876.0,2666407.0,
1693.0,1674.0,1937.0,1884.0,2666411.0,
1693.0,1674.0,1936.0,1879.0,2666414.0,
1694.0,1673.0,1936.0,1881.0,2666418.0,
1694.0,1673.0,1935.0,1882.0,2666421.0,
1694.0,1673.0,1935.0,1889.0,2666425.0,
1694.0,1673.0,1932.0,1892.0,2666429.0,
1694.0,1674.0,1931.0,1901.0,2666432.0,
1693.0,1674.0,1932.0,1905.0,2666436.0,
1693.0,1670.0,1929.0,1911.0,2666440.0,
1693.0,1674.0,1934.0,1918.0,2666443.0,
1692.0,1674.0,1931.0,1925.0,2666447.0,
1694.0,1673.0,1933.0,1934.0,2666451.0,
1693.0,1675.0,1933.0,1943.0,2666454.0,
1694.0,1675.0,1936.0,1953.0,2666458.0,
1693.0,1669.0,1935.0,1965.0,2666461.0,
1693.0,1673.0,1936.0,1977.0,2666465.0,
1690.0,1675.0,1939.0,1990.0,2666469.0,
1694.0,1673.0,1942.0,2005.0,2666472.0,
1692.0,1676.0,1942.0,2019.0,2666476.0,
1693.0,1675.0,1947.0,2037.0,2666480.0,
1692.0,1676.0,1948.0,2051.0,2666483.0,
1694.0,1676.0,1953.0,2069.0,2666487.0,
1694.0,1673.0,1958.0,2088.0,2666490.0,
1695.0,1674.0,1967.0,2107.0,2666494.0,
1693.0,1673.0,1971.0,2129.0,2666498.0,
1695.0,1673.0,1978.0,2150.0,2666501.0,
1693.0,1676.0,1989.0,2172.0,2666505.0,
1694.0,1675.0,1999.0,2192.0,2666509.0,
1694.0,1674.0,2003.0,2215.0,2666512.0,
1694.0,1675.0,2012.0,2235.0,2666516.0,
1694.0,1674.0,2022.0,2254.0,2666520.0,
1695.0,1675.0,2034.0,2270.0,2666523.0,
1695.0,1675.0,2048.0,2292.0,2666527.0,
1695.0,1670.0,2058.0,2309.0,2666530.0,
1694.0,1673.0,2071.0,2326.0,2666534.0,
1695.0,1674.0,2084.0,2345.0,2666538.0,
1695.0,1673.0,2099.0,2362.0,2666541.0,
1694.0,1673.0,2114.0,2379.0,2666545.0,
1694.0,1673.0,2128.0,2396.0,2666549.0,
1694.0,1674.0,2143.0,2410.0,2666552.0,
1694.0,1674.0,2157.0,2428.0,2666556.0,
1695.0,1674.0,2171.0,2442.0,2666560.0,
1696.0,1673.0,2185.0,2456.0,2666563.0,
1694.0,1674.0,2205.0,2468.0,2666567.0,
1695.0,1672.0,2213.0,2485.0,2666570.0,
1695.0,1673.0,2228.0,2494.0,2666574.0,
1694.0,1674.0,2244.0,2503.0,2666578.0,
1695.0,1674.0,2256.0,2513.0,2666581.0,
1695.0,1673.0,2272.0,2525.0,2666585.0,
1697.0,1673.0,2284.0,2535.0,2666589.0,
1696.0,1675.0,2296.0,2541.0,2666592.0,
1695.0,1673.0,2308.0,2550.0,2666596.0,
1696.0,1672.0,2320.0,2557.0,2666600.0,
1694.0,1675.0,2331.0,2561.0,2666603.0,
1695.0,1673.0,2345.0,2563.0,2666607.0,
1688.0,1676.0,2354.0,2566.0,2666610.0,
1695.0,1674.0,2363.0,2564.0,2666614.0,
1695.0,1679.0,2373.0,2566.0,2666618.0,
1696.0,1674.0,2382.0,2564.0,2666621.0,
1695.0,1674.0,2390.0,2563.0,2666625.0,
1695.0,1671.0,2397.0,2563.0,2666629.0,
1695.0,1674.0,2407.0,2561.0,2666632.0,
1695.0,1673.0,2412.0,2558.0,2666636.0,
1696.0,1672.0,2416.0,2558.0,2666639.0,
1695.0,1673.0,2422.0,2553.0,2666643.0,
1696.0,1672.0,2427.0,2549.0,2666647.0,
1695.0,1674.0,2429.0,2546.0,2666650.0,
1698.0,1673.0,2433.0,2540.0,2666654.0,
1694.0,1674.0,2434.0,2537.0,2666658.0,
1694.0,1673.0,2436.0,2528.0,2666661.0,
1696.0,1673.0,2437.0,2523.0,2666665.0,
1696.0,1672.0,2438.0,2514.0,2666669.0,
1695.0,1673.0,2438.0,2505.0,2666672.0,
1696.0,1672.0,2437.0,2494.0,2666676.0,
1695.0,1673.0,2435.0,2483.0,2666679.0,
1695.0,1672.0,2437.0,2470.0,2666683.0,
1696.0,1672.0,2436.0,2458.0,2666687.0,
1696.0,1670.0,2434.0,2445.0,2666690.0,
1696.0,1673.0,2435.0,2432.0,2666694.0,
1695.0,1671.0,2432.0,2419.0,2666698.0,
1695.0,1671.0,2431.0,2405.0,2666701.0,
1695.0,1672.0,2431.0,2391.0,2666705.0,
1695.0,1672.0,2427.0,2374.0,2666709.0,
1694.0,1672.0,2422.0,2359.0,2666712.0,
1695.0,1675.0,2416.0,2341.0,2666716.0,
1697.0,1673.0,2409.0,2323.0,2666719.0,
1695.0,1672.0,2403.0,2303.0,2666723.0,
1694.0,1670.0,2397.0,2292.0,2666727.0,
1693.0,1671.0,2390.0,2274.0,2666730.0,
1696.0,1673.0,2383.0,2257.0,2666734.0,
1696.0,1672.0,2378.0,2241.0,2666738.0,
1696.0,1673.0,2371.0,2226.0,2666741.0,
1695.0,1673.0,2363.0,2213.0,2666745.0,
1694.0,1673.0,2355.0,2202.0,2666749.0,
1693.0,1671.0,2350.0,2186.0,2666752.0,
1694.0,1671.0,2340.0,2172.0,2666756.0,
1694.0,1672.0,2330.0,2164.0,2666759.0,
1695.0,1671.0,2326.0,2152.0,2666763.0,
1695.0,1671.0,2315.0,2143.0,2666767.0,
1696.0,1672.0,2311.0,2137.0,2666770.0,
1694.0,1672.0,2303.0,2130.0,2666774.0,
1695.0,1671.0,2294.0,2117.0,2666778.0,
1694.0,1672.0,2289.0,2114.0,2666781.0,
1697.0,1672.0,2282.0,2106.0,2666785.0,
1695.0,1671.0,2274.0,2101.0,2666788.0,
1694.0,1670.0,2270.0,2094.0,2666792.0,
1695.0,1672.0,2266.0,2093.0,2666796.0,
1694.0,1672.0,2260.0,2087.0,2666799.0,
1695.0,1671.0,2256.0,2080.0,2666803.0,
1695.0,1672.0,2250.0,2074.0,2666807.0,
1694.0,1672.0,2246.0,2072.0,2666810.0,
1695.0,1672.0,2242.0,2067.0,2666814.0,
1694.0,1669.0,2239.0,2066.0,2666818.0,
1695.0,1672.0,2237.0,2060.0,2666821.0,
1694.0,1671.0,2232.0,2056.0,2666825.0,
1694.0,1669.0,2233.0,2052.0,2666828.0,
1694.0,1672.0,2229.0,2052.0,2666832.0,
1695.0,1671.0,2227.0,2048.0,2666836.0,
1694.0,1672.0,2227.0,2045.0,2666839.0,
1694.0,1671.0,2217.0,2041.0,2666843.0,
1694.0,1670.0,2223.0,2041.0,2666847.0,
1694.0,1671.0,2217.0,2038.0,2666850.0,
1695.0,1670.0,2222.0,2036.0,2666854.0,
1696.0,1670.0,2217.0,2034.0,2666858.0,
1694.0,1670.0,2218.0,2032.0,2666861.0,
1696.0,1671.0,2219.0,2030.0,2666865.0,
1694.0,1672.0,2216.0,2031.0,2666868.0,
1694.0,1671.0,2217.0,2024.0,2666872.0,
1699.0,1670.0,2216.0,2021.0,2666876.0,
1695.0,1671.0,2216.0,2013.0,2666879.0,
1695.0,1671.0,2214.0,2008.0,2666883.0,
1695.0,1671.0,2213.0,2006.0,2666887.0,
1690.0,1671.0,2213.0,1998.0,2666890.0,
1695.0,1671.0,2211.0,1994.0,2666894.0,
1695.0,1671.0,2208.0,1989.0,2666898.0,
1694.0,1670.0,2206.0,1986.0,2666901.0,
1695.0,1671.0,2206.0,1976.0,2666905.0,
1695.0,1672.0,2203.0,1973.0,2666908.0,
1694.0,1672.0,2201.0,1968.0,2666912.0,
1696.0,1672.0,2199.0,1965.0,2666916.0,
1695.0,1672.0,2198.0,1958.0,2666919.0,
1694.0,1671.0,2197.0,1951.0,2666923.0,
1694.0,1672.0,2195.0,1954.0,2666927.0,
1695.0,1670.0,2192.0,1949.0,2666930.0,
1695.0,1670.0,2188.0,1946.0,2666934.0,
1695.0,1671.0,2190.0,1942.0,2666938.0,
1694.0,1671.0,2185.0,1938.0,2666941.0,
1694.0,1672.0,2177.0,1933.0,2666945.0,
1695.0,1670.0,2179.0,1931.0,2666948.0,
1695.0,1672.0,2178.0,1927.0,2666952.0,
1695.0,1677.0,2175.0,1928.0,2666956.0,
1694.0,1672.0,2176.0,1925.0,2666959.0,
1695.0,1674.0,2172.0,1926.0,2666963.0,
1695.0,1678.0,2172.0,1928.0,2666967.0,
1694.0,1672.0,2173.0,1928.0,2666970.0,
1695.0,1671.0,2172.0,1932.0,2666974.0,
1695.0,1671.0,2172.0,1935.0,2666977.0,
1690.0,1674.0,2171.0,1933.0,2666981.0,
1694.0,1671.0,2169.0,1934.0,2666985.0,
1695.0,1673.0,2167.0,1934.0,2666988.0,
1696.0,1673.0,2165.0,1930.0,2666992.0,
1694.0,1673.0,2163.0,1925.0,2666996.0,
1701.0,1671.0,2163.0,1922.0,2666999.0,
1696.0,1671.0,2162.0,1919.0,2667003.0,
1695.0,1671.0,2161.0,1920.0,2667007.0,
1695.0,1675.0,2159.0,1916.0,2667010.0,
1691.0,1673.0,2156.0,1912.0,2667014.0,
1696.0,1673.0,2157.0,1911.0,2667017.0,
1696.0,1673.0,2156.0,1908.0,2667021.0,
1700.0,1673.0,2154.0,1909.0,2667025.0,
1694.0,1674.0,2151.0,1905.0,2667028.0,
1696.0,1673.0,2148.0,1902.0,2667032.0,
1695.0,1675.0,2146.0,1896.0,2667036.0,
1696.0,1675.0,2142.0,1897.0,2667039.0,
1699.0,1674.0,2142.0,1892.0,2667043.0,
1695.0,1675.0,2138.0,1892.0,2667047.0,
1696.0,1675.0,2137.0,1891.0,2667050.0,
1696.0,1675.0,2133.0,1887.0,2667054.0,
1696.0,1674.0,2132.0,1890.0,2667057.0,
1694.0,1675.0,2127.0,1888.0,2667061.0,
1694.0,1673.0,2124.0,1888.0,2667065.0,
1696.0,1676.0,2120.0,1887.0,2667068.0,
1695.0,1676.0,2117.0,1883.0,2667072.0,
1695.0,1676.0,2113.0,1883.0,2667076.0,
1695.0,1676.0,2111.0,1880.0,2667079.0,
1696.0,1677.0,2106.0,1880.0,2667083.0,
1695.0,1678.0,2104.0,1878.0,2667087.0,
1695.0,1677.0,2101.0,1876.0,2667090.0,
1697.0,1677.0,2097.0,1872.0,2667094.0,
1695.0,1674.0,2098.0,1870.0,2667097.0,
1695.0,1674.0,2095.0,1866.0,2667101.0,
1696.0,1678.0,2093.0,1866.0,2667105.0,
1698.0,1677.0,2091.0,1866.0,2667108.0,
1694.0,1677.0,2089.0,1866.0,2667112.0,
1696.0,1680.0,2089.0,1868.0,2667116.0,
1695.0,1676.0,2087.0,1868.0,2667119.0,
1695.0,1677.0,2087.0,1870.0,2667123.0,
1696.0,1678.0,2087.0,1870.0,2667126.0,
1691.0,1677.0,2086.0,1872.0,2667130.0,
1696.0,1677.0,2085.0,1874.0,2667134.0,
1695.0,1677.0,2082.0,1874.0,2667137.0,
1696.0,1677.0,2082.0,1878.0,2667141.0,
1695.0,1678.0,2078.0,1878.0,2667145.0,
1696.0,1676.0,2076.0,1881.0,2667148.0,
1696.0,1678.0,2075.0,1883.0,2667152.0,
1697.0,1677.0,2072.0,1882.0,2667156.0,
1697.0,1677.0,2069.0,1883.0,2667159.0,
1691.0,1680.0,2070.0,1884.0,2667163.0,
1696.0,1678.0,2070.0,1882.0,2667166.0,
1696.0,1677.0,2066.0,1888.0,2667170.0,
1697.0,1680.0,2066.0,1885.0,2667174.0,
1698.0,1679.0,2063.0,1886.0,2667177.0,
1696.0,1677.0,2065.0,1885.0,2667181.0,
1692.0,1679.0,2060.0,1886.0,2667185.0,
1695.0,1678.0,2059.0,1885.0,2667188.0,
1696.0,1679.0,2059.0,1886.0,2667192.0,
1698.0,1678.0,2050.0,1887.0,2667196.0,
1698.0,1678.0,2053.0,1890.0,2667199.0,
1697.0,1678.0,2056.0,1890.0,2667203.0,
1697.0,1681.0,2050.0,1893.0,2667206.0,
1696.0,1681.0,2045.0,1891.0,2667210.0,
1698.0,1678.0,2045.0,1893.0,2667214.0,
1696.0,1680.0,2049.0,1891.0,2667217.0,
1699.0,1680.0,2038.0,1888.0,2667221.0,
1694.0,1680.0,2041.0,1890.0,2667225.0,
1696.0,1680.0,2036.0,1884.0,2667228.0,
1696.0,1682.0,2034.0,1882.0,2667232.0,
1697.0,1680.0,2033.0,1882.0,2667235.0,
1697.0,1679.0,2032.0,1879.0,2667239.0,
1697.0,1681.0,2033.0,1879.0,2667243.0,
1697.0,1681.0,2030.0,1880.0,2667246.0,
1697.0,1681.0,2028.0,1878.0,2667250.0,
1697.0,1680.0,2028.0,1875.0,2667254.0,
1697.0,1682.0,2028.0,1876.0,2667257.0,
1698.0,1678.0,2027.0,1873.0,2667261.0,
1697.0,1683.0,2024.0,1870.0,2667265.0,
1698.0,1681.0,2021.0,1873.0,2667268.0,
1694.0,1679.0,2021.0,1870.0,2667272.0,
1697.0,1680.0,2017.0,1869.0,2667275.0,
1698.0,1681.0,2016.0,1868.0,2667279.0,
1697.0,1681.0,2012.0,1867.0,2667283.0,
1695.0,1682.0,2012.0,1867.0,2667286.0,
1696.0,1682.0,2009.0,1866.0,2667290.0,
1692.0,1682.0,2007.0,1865.0,2667294.0,
1697.0,1678.0,2004.0,1864.0,2667297.0,
1697.0,1682.0,1998.0,1861.0,2667301.0,
1698.0,1681.0,1999.0,1858.0,2667305.0,
1697.0,1683.0,1998.0,1857.0,2667308.0,
1698.0,1684.0,1994.0,1859.0,2667312.0,
1698.0,1682.0,1992.0,1859.0,2667315.0,
1698.0,1684.0,1990.0,1862.0,2667319.0,
1697.0,1683.0,1988.0,1859.0,2667323.0,
1699.0,1680.0,1985.0,1858.0,2667326.0,
1698.0,1683.0,1986.0,1859.0,2667330.0,
1699.0,1684.0,1978.0,1857.0,2667334.0,
1698.0,1683.0,1982.0,1857.0,2667337.0,
1698.0,1684.0,1980.0,1855.0,2667341.0,
1697.0,1682.0,1974.0,1854.0,2667345.0,
1698.0,1682.0,1975.0,1856.0,2667348.0,
1698.0,1683.0,1975.0,1855.0,2667352.0,
1700.0,1682.0,1974.0,1854.0,2667355.0,
1699.0,1683.0,1973.0,1860.0,2667359.0,
1697.0,1685.0,1971.0,1854.0,2667363.0,
1697.0,1682.0,1974.0,1858.0,2667366.0,
1699.0,1683.0,1972.0,1862.0,2667370.0,
1696.0,1682.0,1969.0,1863.0,2667374.0,
1698.0,1681.0,1967.0,1869.0,2667377.0,
1697.0,1682.0,1966.0,1871.0,2667381.0,
1698.0,1683.0,1965.0,1877.0,2667384.0,
1699.0,1683.0,1964.0,1881.0,2667388.0,
1701.0,1683.0,1959.0,1885.0,2667392.0,
1697.0,1681.0,1961.0,1890.0,2667395.0,
1698.0,1681.0,1961.0,1896.0,2667399.0,
1697.0,1680.0,1958.0,1905.0,2667403.0,
1698.0,1679.0,1956.0,1913.0,2667406.0,
1699.0,1681.0,1952.0,1924.0,2667410.0,
1698.0,1681.0,1951.0,1937.0,2667414.0,
1698.0,1686.0,1948.0,1948.0,2667417.0,
1695.0,1682.0,1948.0,1961.0,2667421.0,
1699.0,1680.0,1944.0,1977.0,2667424.0,
1698.0,1682.0,1949.0,1989.0,2667428.0,
1699.0,1681.0,1944.0,2005.0,2667432.0,
1696.0,1683.0,1945.0,2021.0,2667435.0,
1698.0,1681.0,1948.0,2037.0,2667439.0,
1699.0,1680.0,1950.0,2054.0,2667443.0,
1698.0,1680.0,1955.0,2070.0,2667446.0,
1698.0,1685.0,1959.0,2090.0,2667450.0,
1698.0,1682.0,1961.0,2110.0,2667454.0,
1698.0,1682.0,1971.0,2127.0,2667457.0,
1699.0,1682.0,1977.0,2144.0,2667461.0,
1698.0,1683.0,1988.0,2165.0,2667464.0,
1698.0,1682.0,1993.0,2185.0,2667468.0,
1699.0,1683.0,2000.0,2201.0,2667472.0,
1699.0,1684.0,2010.0,2218.0,2667475.0,
1698.0,1684.0,2020.0,2232.0,2667479.0,
1698.0,1686.0,2030.0,2246.0,2667483.0,
1698.0,1684.0,2045.0,2261.0,2667486.0,
1699.0,1684.0,2056.0,2273.0,2667490.0,
1697.0,1683.0,2070.0,2291.0,2667494.0,
1699.0,1683.0,2085.0,2303.0,2667497.0,
1699.0,1683.0,2104.0,2314.0,2667501.0,
1699.0,1683.0,2116.0,2327.0,2667504.0,
1699.0,1679.0,2130.0,2337.0,2667508.0,
1699.0,1682.0,2143.0,2342.0,2667512.0,
1698.0,1683.0,2162.0,2355.0,2667515.0,
1698.0,1684.0,2176.0,2360.0,2667519.0,
1700.0,1686.0,2192.0,2367.0,2667523.0,
1698.0,1685.0,2206.0,2377.0,2667526.0,
1699.0,1687.0,2221.0,2380.0,2667530.0,
1700.0,1685.0,2232.0,2387.0,2667533.0,
1700.0,1684.0,2246.0,2395.0,2667537.0,
1699.0,1684.0,2258.0,2401.0,2667541.0,
1699.0,1685.0,2269.0,2410.0,2667544.0,
1699.0,1686.0,2281.0,2416.0,2667548.0,
1698.0,1683.0,2287.0,2423.0,2667552.0,
1700.0,1683.0,2301.0,2426.0,2667555.0,
1698.0,1686.0,2311.0,2429.0,2667559.0,
1700.0,1685.0,2322.0,2433.0,2667563.0,
1699.0,1686.0,2327.0,2433.0,2667566.0,
1699.0,1686.0,2332.0,2435.0,2667570.0,
1701.0,1686.0,2338.0,2434.0,2667573.0,
1699.0,1682.0,2346.0,2429.0,2667577.0,
1699.0,1685.0,2348.0,2429.0,2667581.0,
1699.0,1686.0,2354.0,2425.0,2667584.0,
1700.0,1683.0,2357.0,2423.0,2667588.0,
1700.0,1685.0,2360.0,2419.0,2667592.0,
1700.0,1684.0,2360.0,2415.0,2667595.0,
1698.0,1685.0,2361.0,2409.0,2667599.0,
1699.0,1685.0,2365.0,2401.0,2667603.0,
1700.0,1685.0,2360.0,2397.0,2667606.0,
1699.0,1685.0,2360.0,2389.0,2667610.0,
1700.0,1685.0,2358.0,2378.0,2667613.0,
1700.0,1686.0,2355.0,2371.0,2667617.0,
1700.0,1686.0,2352.0,2357.0,2667621.0,
1699.0,1685.0,2348.0,2347.0,2667624.0,
1698.0,1685.0,2346.0,2335.0,2667628.0,
1700.0,1686.0,2344.0,2321.0,2667632.0,
1700.0,1685.0,2337.0,2310.0,2667635.0,
1695.0,1685.0,2334.0,2298.0,2667639.0,
1698.0,1685.0,2330.0,2285.0,2667643.0,
1700.0,1685.0,2324.0,2271.0,2667646.0,
1706.0,1685.0,2316.0,2256.0,2667650.0,
1699.0,1686.0,2312.0,2245.0,2667653.0,
1700.0,1680.0,2306.0,2231.0,2667657.0,
1700.0,1686.0,2299.0,2216.0,2667661.0,
1701.0,1684.0,2292.0,2206.0,2667664.0,
1699.0,1687.0,2289.0,2191.0,2667668.0,
1701.0,1685.0,2282.0,2175.0,2667672.0,
1700.0,1685.0,2277.0,2166.0,2667675.0,
1700.0,1686.0,2272.0,2152.0,2667679.0,
1701.0,1686.0,2268.0,2144.0,2667682.0,
1700.0,1685.0,2262.0,2132.0,2667686.0,
1699.0,1689.0,2255.0,2122.0,2667690.0,
1699.0,1685.0,2249.0,2118.0,2667693.0,
1700.0,1683.0,2240.0,2111.0,2667697.0,
1699.0,1685.0,2238.0,2101.0,2667701.0,
1701.0,1685.0,2229.0,2097.0,2667704.0,
1700.0,1685.0,2224.0,2089.0,2667708.0,
1702.0,1686.0,2213.0,2081.0,2667712.0,
1700.0,1686.0,2214.0,2077.0,2667715.0,
1700.0,1684.0,2208.0,2069.0,2667719.0,
1699.0,1688.0,2206.0,2063.0,2667722.0,
1698.0,1686.0,2200.0,2059.0,2667726.0,
1705.0,1686.0,2195.0,2053.0,2667730.0,
1700.0,1686.0,2189.0,2049.0,2667733.0,
1701.0,1686.0,2185.0,2045.0,2667737.0,
1700.0,1687.0,2176.0,2038.0,2667741.0,
1699.0,1686.0,2176.0,2033.0,2667744.0,
1700.0,1687.0,2172.0,2027.0,2667748.0,
1700.0,1685.0,2167.0,2021.0,2667752.0,
1700.0,1686.0,2165.0,2016.0,2667755.0,
1700.0,1686.0,2167.0,2012.0,2667759.0,
1701.0,1686.0,2163.0,2012.0,2667762.0,
1700.0,1688.0,2161.0,2011.0,2667766.0,
1701.0,1686.0,2159.0,2004.0,2667770.0,
1700.0,1687.0,2158.0,2007.0,2667773.0,
1700.0,1687.0,2157.0,2002.0,2667777.0,
1699.0,1689.0,2156.0,2002.0,2667781.0,
1701.0,1687.0,2155.0,2003.0,2667784.0,
1707.0,1687.0,2156.0,2003.0,2667788.0,
1700.0,1688.0,2156.0,2007.0,2667792.0,
1700.0,1687.0,2156.0,2005.0,2667795.0,
1700.0,1689.0,2156.0,2004.0,2667799.0,
1700.0,1688.0,2155.0,2006.0,2667802.0,
1694.0,1687.0,2154.0,2007.0,2667806.0,
1701.0,1688.0,2155.0,2004.0,2667810.0,
1700.0,1688.0,2151.0,2002.0,2667813.0,
1701.0,1688.0,2151.0,1996.0,2667817.0,
1701.0,1688.0,2150.0,1989.0,2667821.0,
1701.0,1688.0,2147.0,1986.0,2667824.0,
1700.0,1687.0,2146.0,1980.0,2667828.0,
1698.0,1688.0,2144.0,1977.0,2667831.0,
1701.0,1687.0,2144.0,1973.0,2667835.0,
1701.0,1689.0,2139.0,1967.0,2667839.0,
1701.0,1688.0,2137.0,1963.0,2667842.0,
1701.0,1689.0,2136.0,1958.0,2667846.0,
1698.0,1687.0,2132.0,1952.0,2667850.0,
1700.0,1689.0,2128.0,1947.0,2667853.0,
1698.0,1687.0,2123.0,1939.0,2667857.0,
1708.0,1688.0,2120.0,1939.0,2667861.0,
1704.0,1688.0,2117.0,1934.0,2667864.0,
1700.0,1688.0,2113.0,1929.0,2667868.0,
1701.0,1689.0,2112.0,1925.0,2667871.0,
1701.0,1688.0,2108.0,1923.0,2667875.0,
1703.0,1689.0,2107.0,1919.0,2667879.0,
1701.0,1688.0,2102.0,1911.0,2667882.0,
1700.0,1689.0,2099.0,1912.0,2667886.0,
1701.0,1688.0,2096.0,1907.0,2667890.0,
1702.0,1689.0,2093.0,1902.0,2667893.0,
1700.0,1688.0,2090.0,1896.0,2667897.0,
1701.0,1689.0,2086.0,1896.0,2667901.0,
1701.0,1689.0,2083.0,1894.0,2667904.0,
1699.0,1689.0,2078.0,1892.0,2667908.0,
1702.0,1689.0,2076.0,1887.0,2667911.0,
1702.0,1689.0,2072.0,1883.0,2667915.0,
1700.0,1690.0,2071.0,1884.0,2667919.0,
1702.0,1689.0,2067.0,1882.0,2667922.0,
1701.0,1690.0,2066.0,1883.0,2667926.0,
1701.0,1689.0,2066.0,1885.0,2667930.0,
1701.0,1689.0,2063.0,1882.0,2667933.0,
1701.0,1689.0,2061.0,1880.0,2667937.0,
1702.0,1689.0,2059.0,1884.0,2667941.0,
1701.0,1688.0,2058.0,1883.0,2667944.0,
1702.0,1688.0,2049.0,1884.0,2667948.0,
1702.0,1689.0,2054.0,1884.0,2667951.0,
1699.0,1690.0,2052.0,1883.0,2667955.0,
1700.0,1689.0,2050.0,1885.0,2667959.0,
1700.0,1689.0,2048.0,1884.0,2667962.0,
1699.0,1689.0,2046.0,1884.0,2667966.0,
1701.0,1691.0,2045.0,1884.0,2667970.0,
1701.0,1689.0,2040.0,1883.0,2667973.0,
1701.0,1691.0,2040.0,1884.0,2667977.0,
1700.0,1690.0,2040.0,1879.0,2667981.0,
1702.0,1690.0,2038.0,1887.0,2667984.0,
1701.0,1689.0,2033.0,1886.0,2667988.0,
1700.0,1689.0,2030.0,1885.0,2667991.0,
1700.0,1686.0,2027.0,1885.0,2667995.0,
1701.0,1692.0,2024.0,1884.0,2667999.0,
1701.0,1693.0,2022.0,1884.0,2668002.0,
1700.0,1690.0,2018.0,1883.0,2668006.0,
1700.0,1690.0,2015.0,1885.0,2668010.0,
1701.0,1689.0,2012.0,1886.0,2668013.0,
1701.0,1690.0,2011.0,1889.0,2668017.0,
1700.0,1690.0,2008.0,1888.0,2668020.0,
1701.0,1688.0,2005.0,1893.0,2668024.0,
1694.0,1690.0,2003.0,1894.0,2668028.0,
1702.0,1692.0,1999.0,1891.0,2668031.0,
1700.0,1690.0,2001.0,1886.0,2668035.0,
1701.0,1688.0,1997.0,1883.0,2668039.0,
1701.0,1690.0,1998.0,1879.0,2668042.0,
1699.0,1692.0,1996.0,1877.0,2668046.0,
1696.0,1689.0,1995.0,1874.0,2668050.0,
1701.0,1688.0,1994.0,1869.0,2668053.0,
1701.0,1690.0,1992.0,1867.0,2668057.0,
1701.0,1689.0,1991.0,1865.0,2668060.0,
1701.0,1690.0,1990.0,1861.0,2668064.0,
1701.0,1690.0,1989.0,1859.0,2668068.0,
1700.0,1690.0,1987.0,1859.0,2668071.0,
1701.0,1688.0,1985.0,1862.0,2668075.0,
1701.0,1690.0,1982.0,1860.0,2668079.0,
1702.0,1689.0,1981.0,1863.0,2668082.0,
1701.0,1688.0,1980.0,1864.0,2668086.0,
1701.0,1688.0,1977.0,1867.0,2668090.0,
1701.0,1688.0,1976.0,1869.0,2668093.0,
1702.0,1689.0,1976.0,1870.0,2668097.0,
1702.0,1687.0,1975.0,1871.0,2668100.0,
1701.0,1688.0,1973.0,1874.0,2668104.0,
1697.0,1689.0,1974.0,1873.0,2668108.0,
1702.0,1688.0,1973.0,1874.0,2668111.0,
1700.0,1688.0,1973.0,1875.0,2668115.0,
1701.0,1687.0,1971.0,1876.0,2668119.0,
1702.0,1688.0,1965.0,1877.0,2668122.0,
1700.0,1688.0,1969.0,1878.0,2668126.0,
1699.0,1688.0,1969.0,1877.0,2668129.0,
1702.0,1687.0,1969.0,1878.0,2668133.0,
1700.0,1691.0,1968.0,1876.0,2668137.0,
1700.0,1690.0,1969.0,1873.0,2668140.0,
1701.0,1687.0,1968.0,1876.0,2668144.0,
1701.0,1690.0,1965.0,1876.0,2668148.0,
1701.0,1689.0,1965.0,1870.0,2668151.0,
1701.0,1687.0,1962.0,1869.0,2668155.0,
1701.0,1687.0,1963.0,1866.0,2668159.0,
1701.0,1687.0,1960.0,1870.0,2668162.0,
1702.0,1688.0,1960.0,1868.0,2668166.0,
1701.0,1686.0,1962.0,1867.0,2668169.0,
1701.0,1688.0,1955.0,1865.0,2668173.0,
1702.0,1687.0,1959.0,1864.0,2668177.0,
1702.0,1686.0,1960.0,1864.0,2668180.0,
1701.0,1686.0,1957.0,1864.0,2668184.0,
1701.0,1685.0,1955.0,1867.0,2668188.0,
1701.0,1686.0,1956.0,1870.0,2668191.0,
1700.0,1687.0,1953.0,1868.0,2668195.0,
1703.0,1686.0,1961.0,1871.0,2668199.0,
1701.0,1685.0,1950.0,1871.0,2668202.0,
1702.0,1686.0,1950.0,1875.0,2668206.0,
1701.0,1684.0,1949.0,1875.0,2668209.0,
1701.0,1686.0,1952.0,1876.0,2668213.0,
1701.0,1685.0,1950.0,1874.0,2668217.0,
1702.0,1683.0,1948.0,1872.0,2668220.0,
1700.0,1685.0,1947.0,1873.0,2668224.0,
1697.0,1684.0,1948.0,1871.0,2668228.0,
1702.0,1685.0,1945.0,1875.0,2668231.0,
1701.0,1684.0,1943.0,1878.0,2668235.0,
1701.0,1684.0,1945.0,1880.0,2668239.0,
1701.0,1684.0,1938.0,1880.0,2668242.0,
1704.0,1684.0,1931.0,1883.0,2668246.0,
1702.0,1683.0,1932.0,1887.0,2668249.0,
1706.0,1684.0,1930.0,1893.0,2668253.0,
1704.0,1683.0,1928.0,1896.0,2668257.0,
1701.0,1682.0,1924.0,1903.0,2668260.0,
1701.0,1684.0,1920.0,1911.0,2668264.0,
1701.0,1682.0,1917.0,1914.0,2668268.0,
1701.0,1683.0,1912.0,1924.0,2668271.0,
1701.0,1683.0,1911.0,1932.0,2668275.0,
1699.0,1683.0,1904.0,1943.0,2668278.0,
1702.0,1683.0,1902.0,1955.0,2668282.0,
1702.0,1681.0,1900.0,1963.0,2668286.0,
1701.0,1685.0,1897.0,1974.0,2668289.0,
1701.0,1682.0,1894.0,1986.0,2668293.0,
1704.0,1682.0,1894.0,2002.0,2668297.0,
1704.0,1682.0,1891.0,2016.0,2668300.0,
1704.0,1681.0,1893.0,2029.0,2668304.0,
1702.0,1681.0,1892.0,2045.0,2668308.0,
1701.0,1683.0,1890.0,2058.0,2668311.0,
1701.0,1682.0,1894.0,2070.0,2668315.0,
1702.0,1682.0,1903.0,2084.0,2668318.0,
1699.0,1681.0,1907.0,2099.0,2668322.0,
1702.0,1680.0,1909.0,2113.0,2668326.0,
1702.0,1681.0,1914.0,2125.0,2668329.0,
1702.0,1681.0,1924.0,2140.0,2668333.0,
1702.0,1682.0,1933.0,2155.0,2668337.0,
1702.0,1676.0,1941.0,2168.0,2668340.0,
1699.0,1680.0,1952.0,2181.0,2668344.0,
1702.0,1681.0,1959.0,2190.0,2668348.0,
1700.0,1682.0,1969.0,2202.0,2668351.0,
1703.0,1682.0,1975.0,2215.0,2668355.0,
1702.0,1681.0,1986.0,2227.0,2668358.0,
1702.0,1681.0,1996.0,2237.0,2668362.0,
1702.0,1680.0,2009.0,2248.0,2668366.0,
1701.0,1677.0,2018.0,2253.0,2668369.0,
1702.0,1683.0,2031.0,2270.0,2668373.0,
1702.0,1681.0,2042.0,2277.0,2668377.0,
1704.0,1682.0,2054.0,2286.0,2668380.0,
1702.0,1682.0,2066.0,2299.0,2668384.0,
1701.0,1681.0,2076.0,2304.0,2668388.0,
1702.0,1680.0,2089.0,2309.0,2668391.0,
1702.0,1681.0,2099.0,2317.0,2668395.0,
1699.0,1682.0,2110.0,2322.0,2668398.0,
1701.0,1682.0,2116.0,2323.0,2668402.0,
1702.0,1681.0,2126.0,2327.0,2668406.0,
1701.0,1682.0,2133.0,2328.0,2668409.0,
1699.0,1681.0,2142.0,2330.0,2668413.0,
1702.0,1682.0,2151.0,2329.0,2668417.0,
1703.0,1682.0,2155.0,2330.0,2668420.0,
1702.0,1682.0,2160.0,2332.0,2668424.0,
1702.0,1683.0,2164.0,2330.0,2668428.0,
1702.0,1682.0,2169.0,2326.0,2668431.0,
1702.0,1684.0,2172.0,2326.0,2668435.0,
1704.0,1682.0,2176.0,2324.0,2668438.0,
1701.0,1683.0,2179.0,2324.0,2668442.0,
1704.0,1681.0,2184.0,2319.0,2668446.0,
1702.0,1680.0,2184.0,2314.0,2668449.0,
1702.0,1682.0,2187.0,2307.0,2668453.0,
1703.0,1682.0,2187.0,2300.0,2668457.0,
1703.0,1684.0,2186.0,2294.0,2668460.0,
1702.0,1681.0,2178.0,2293.0,2668464.0,
1702.0,1683.0,2183.0,2287.0,2668467.0,
1703.0,1682.0,2181.0,2279.0,2668471.0,
1702.0,1688.0,2179.0,2271.0,2668475.0,
1704.0,1681.0,2177.0,2263.0,2668478.0,
1703.0,1682.0,2174.0,2256.0,2668482.0,
1702.0,1683.0,2169.0,2248.0,2668486.0,
1703.0,1683.0,2166.0,2236.0,2668489.0,
1704.0,1685.0,2165.0,2228.0,2668493.0,
1703.0,1682.0,2159.0,2216.0,2668497.0,
1702.0,1680.0,2158.0,2205.0,2668500.0,
1703.0,1682.0,2154.0,2194.0,2668504.0,
1702.0,1682.0,2156.0,2185.0,2668507.0,
1702.0,1682.0,2141.0,2175.0,2668511.0,
1704.0,1684.0,2138.0,2163.0,2668515.0,
1702.0,1683.0,2130.0,2152.0,2668518.0,
1702.0,1683.0,2124.0,2140.0,2668522.0,
1703.0,1682.0,2120.0,2131.0,2668526.0,
1703.0,1681.0,2115.0,2118.0,2668529.0,
1704.0,1683.0,2111.0,2107.0,2668533.0,
1702.0,1680.0,2103.0,2095.0,2668537.0,
1704.0,1682.0,2099.0,2084.0,2668540.0,
1702.0,1683.0,2096.0,2075.0,2668544.0,
1703.0,1682.0,2095.0,2063.0,2668547.0,
1703.0,1683.0,2093.0,2054.0,2668551.0,
1702.0,1682.0,2093.0,2044.0,2668555.0,
1703.0,1683.0,2090.0,2036.0,2668558.0,
1703.0,1683.0,2087.0,2031.0,2668562.0,
1702.0,1682.0,2087.0,2026.0,2668566.0,
1702.0,1683.0,2085.0,2018.0,2668569.0,
1703.0,1682.0,2083.0,2016.0,2668573.0,
1702.0,1682.0,2080.0,2010.0,2668577.0,
1703.0,1682.0,2077.0,2011.0,2668580.0,
1702.0,1682.0,2080.0,1999.0,2668584.0,
1702.0,1682.0,2080.0,1993.0,2668587.0,
1703.0,1682.0,2078.0,1985.0,2668591.0,
1702.0,1681.0,2079.0,1989.0,2668595.0,
1702.0,1680.0,2077.0,1985.0,2668598.0,
1702.0,1682.0,2077.0,1983.0,2668602.0,
1703.0,1682.0,2079.0,1972.0,2668606.0,
1703.0,1680.0,2077.0,1980.0,2668609.0,
1700.0,1683.0,2080.0,1978.0,2668613.0,
1703.0,1680.0,2078.0,1979.0,2668616.0,
1702.0,1680.0,2077.0,1978.0,2668620.0,
1702.0,1681.0,2078.0,1980.0,2668624.0,
1701.0,1680.0,2076.0,1979.0,2668627.0,
1704.0,1683.0,2076.0,1978.0,2668631.0,
1703.0,1682.0,2074.0,1977.0,2668635.0,
1703.0,1680.0,2074.0,1975.0,2668638.0,
1703.0,1681.0,2072.0,1970.0,2668642.0,
1702.0,1680.0,2071.0,1975.0,2668646.0,
1702.0,1680.0,2068.0,1973.0,2668649.0,
1702.0,1680.0,2066.0,1971.0,2668653.0,
1702.0,1680.0,2065.0,1969.0,2668656.0,
1703.0,1679.0,2063.0,1967.0,2668660.0,
1703.0,1682.0,2061.0,1967.0,2668664.0,
1703.0,1680.0,2061.0,1965.0,2668667.0,
1703.0,1680.0,2058.0,1964.0,2668671.0,
1701.0,1681.0,2053.0,1966.0,2668675.0,
1702.0,1680.0,2053.0,1967.0,2668678.0,
1703.0,1676.0,2052.0,1967.0,2668682.0,
1703.0,1680.0,2049.0,1968.0,2668686.0,
1703.0,1682.0,2046.0,1961.0,2668689.0,
1702.0,1680.0,2042.0,1964.0,2668693.0,
1702.0,1677.0,2043.0,1962.0,2668696.0,
1703.0,1681.0,2042.0,1956.0,2668700.0,
1702.0,1679.0,2041.0,1953.0,2668704.0,
1702.0,1681.0,2040.0,1950.0,2668707.0,
1702.0,1681.0,2041.0,1945.0,2668711.0,
1702.0,1679.0,2034.0,1944.0,2668715.0,
1703.0,1680.0,2032.0,1938.0,2668718.0,
1702.0,1679.0,2030.0,1935.0,2668722.0,
1702.0,1684.0,2022.0,1928.0,2668725.0,
1703.0,1681.0,2025.0,1928.0,2668729.0,
1703.0,1682.0,2021.0,1927.0,2668733.0,
1703.0,1679.0,2020.0,1926.0,2668736.0,
1701.0,1680.0,2016.0,1921.0,2668740.0,
1704.0,1678.0,2014.0,1918.0,2668744.0,
1702.0,1680.0,2009.0,1915.0,2668747.0,
1702.0,1681.0,2007.0,1912.0,2668751.0,
1703.0,1680.0,2003.0,1909.0,2668755.0,
1702.0,1679.0,2001.0,1905.0,2668758.0,
1702.0,1680.0,2000.0,1899.0,2668762.0,
1702.0,1679.0,2000.0,1894.0,2668765.0,
1701.0,1679.0,1997.0,1890.0,2668769.0,
1703.0,1677.0,1999.0,1886.0,2668773.0,
1702.0,1680.0,1995.0,1883.0,2668776.0,
1701.0,1679.0,1993.0,1879.0,2668780.0,
1702.0,1680.0,1992.0,1880.0,2668784.0,
1703.0,1679.0,1988.0,1876.0,2668787.0,
1703.0,1679.0,1988.0,1872.0,2668791.0,
1702.0,1681.0,1987.0,1869.0,2668795.0,
1703.0,1679.0,1987.0,1869.0,2668798.0,
1703.0,1679.0,1988.0,1867.0,2668802.0,
1702.0,1681.0,1981.0,1863.0,2668805.0,
1703.0,1679.0,1983.0,1865.0,2668809.0,
1702.0,1682.0,1977.0,1866.0,2668813.0,
1703.0,1681.0,1976.0,1864.0,2668816.0,
1702.0,1678.0,1973.0,1864.0,2668820.0,
1702.0,1675.0,1973.0,1864.0,2668824.0,
1701.0,1677.0,1972.0,1861.0,2668827.0,
1702.0,1677.0,1970.0,1857.0,2668831.0,
1702.0,1680.0,1969.0,1862.0,2668835.0,
1702.0,1682.0,1965.0,1864.0,2668838.0,
1703.0,1680.0,1962.0,1867.0,2668842.0,
1702.0,1679.0,1963.0,1870.0,2668845.0,
1702.0,1680.0,1960.0,1873.0,2668849.0,
1703.0,1681.0,1956.0,1879.0,2668853.0,
1703.0,1683.0,1954.0,1880.0,2668856.0,
1702.0,1677.0,1953.0,1880.0,2668860.0,
1703.0,1679.0,1948.0,1884.0,2668864.0,
1703.0,1680.0,1948.0,1887.0,2668867.0,
1703.0,1678.0,1946.0,1890.0,2668871.0,
1702.0,1678.0,1947.0,1891.0,2668874.0,
1702.0,1679.0,1945.0,1889.0,2668878.0,
1703.0,1681.0,1941.0,1891.0,2668882.0,
1704.0,1679.0,1940.0,1890.0,2668885.0,
1699.0,1677.0,1939.0,1892.0,2668889.0,
1699.0,1678.0,1938.0,1889.0,2668893.0,
1703.0,1679.0,1936.0,1888.0,2668896.0,
1702.0,1678.0,1935.0,1887.0,2668900.0,
1702.0,1678.0,1937.0,1884.0,2668904.0,
1701.0,1678.0,1933.0,1883.0,2668907.0,
1702.0,1679.0,1931.0,1882.0,2668911.0,
1702.0,1679.0,1928.0,1883.0,2668914.0,
1703.0,1677.0,1927.0,1884.0,2668918.0,
1701.0,1677.0,1923.0,1882.0,2668922.0,
1702.0,1682.0,1919.0,1881.0,2668925.0,
1703.0,1676.0,1918.0,1881.0,2668929.0,
1703.0,1679.0,1916.0,1884.0,2668933.0,
1703.0,1678.0,1914.0,1882.0,2668936.0,
1703.0,1678.0,1913.0,1881.0,2668940.0,
1703.0,1678.0,1911.0,1882.0,2668944.0,
1705.0,1679.0,1911.0,1881.0,2668947.0,
1702.0,1678.0,1912.0,1883.0,2668951.0,
1703.0,1685.0,1910.0,1881.0,2668954.0,
1703.0,1676.0,1908.0,1877.0,2668958.0,
1702.0,1678.0,1910.0,1876.0,2668962.0,
1704.0,1677.0,1912.0,1872.0,2668965.0,
1703.0,1679.0,1909.0,1870.0,2668969.0,
1703.0,1677.0,1908.0,1869.0,2668973.0,
1702.0,1677.0,1907.0,1863.0,2668976.0,
1703.0,1679.0,1905.0,1862.0,2668980.0,
1707.0,1679.0,1905.0,1861.0,2668984.0,
1703.0,1677.0,1904.0,1858.0,2668987.0,
1703.0,1678.0,1904.0,1859.0,2668991.0,
1702.0,1677.0,1905.0,1861.0,2668994.0,
1703.0,1677.0,1901.0,1861.0,2668998.0,
1704.0,1677.0,1903.0,1859.0,2669002.0,
1704.0,1677.0,1902.0,1861.0,2669005.0,
1703.0,1677.0,1902.0,1860.0,2669009.0,
1703.0,1678.0,1901.0,1860.0,2669013.0,
1703.0,1675.0,1900.0,1861.0,2669016.0,
1703.0,1676.0,1899.0,1863.0,2669020.0,
1704.0,1677.0,1894.0,1864.0,2669023.0,
1703.0,1676.0,1894.0,1864.0,2669027.0,
1702.0,1678.0,1893.0,1866.0,2669031.0,
1702.0,1676.0,1893.0,1864.0,2669034.0,
1702.0,1676.0,1884.0,1866.0,2669038.0,
1703.0,1675.0,1884.0,1865.0,2669042.0,
1702.0,1676.0,1884.0,1865.0,2669045.0,
1703.0,1676.0,1880.0,1866.0,2669049.0,
1704.0,1676.0,1876.0,1866.0,2669053.0,
1702.0,1676.0,1874.0,1867.0,2669056.0,
1702.0,1677.0,1873.0,1868.0,2669060.0,
1703.0,1676.0,1870.0,1868.0,2669063.0,
1702.0,1676.0,1867.0,1867.0,2669067.0,
1704.0,1677.0,1863.0,1867.0,2669071.0,
1702.0,1677.0,1860.0,1866.0,2669074.0,
1702.0,1676.0,1857.0,1867.0,2669078.0,
1703.0,1676.0,1857.0,1869.0,2669082.0,
1704.0,1678.0,1856.0,1870.0,2669085.0,
1703.0,1677.0,1855.0,1871.0,2669089.0,
1703.0,1678.0,1855.0,1872.0,2669093.0,
1702.0,1679.0,1854.0,1875.0,2669096.0,
1708.0,1677.0,1853.0,1878.0,2669100.0,
1703.0,1677.0,1853.0,1882.0,2669103.0,
1704.0,1677.0,1854.0,1886.0,2669107.0,
1702.0,1677.0,1854.0,1891.0,2669111.0,
1703.0,1677.0,1857.0,1900.0,2669114.0,
1702.0,1676.0,1858.0,1907.0,2669118.0,
1704.0,1680.0,1857.0,1914.0,2669122.0,
1704.0,1679.0,1860.0,1923.0,2669125.0,
1703.0,1676.0,1862.0,1933.0,2669129.0,
1704.0,1678.0,1863.0,1943.0,2669133.0,
1703.0,1680.0,1866.0,1954.0,2669136.0,
1703.0,1677.0,1872.0,1964.0,2669140.0,
1703.0,1678.0,1874.0,1975.0,2669143.0,
1703.0,1677.0,1878.0,1991.0,2669147.0,
1704.0,1679.0,1880.0,2003.0,2669151.0,
1704.0,1679.0,1887.0,2019.0,2669154.0,
1703.0,1679.0,1891.0,2035.0,2669158.0,
1702.0,1676.0,1890.0,2053.0,2669162.0,
1703.0,1675.0,1903.0,2071.0,2669165.0,
1703.0,1678.0,1911.0,2085.0,2669169.0,
1703.0,1683.0,1918.0,2103.0,2669172.0,
1703.0,1678.0,1926.0,2117.0,2669176.0,
1703.0,1678.0,1933.0,2135.0,2669180.0,
1704.0,1678.0,1941.0,2150.0,2669183.0,
1703.0,1678.0,1949.0,2164.0,2669187.0,
1703.0,1677.0,1957.0,2179.0,2669191.0,
1704.0,1678.0,1966.0,2195.0,2669194.0,
1704.0,1677.0,1974.0,2208.0,2669198.0,
1704.0,1680.0,1986.0,2223.0,2669202.0,
1704.0,1676.0,1993.0,2235.0,2669205.0,
1702.0,1678.0,2002.0,2247.0,2669209.0,
1704.0,1675.0,2011.0,2260.0,2669212.0,
1703.0,1677.0,2017.0,2268.0,2669216.0,
1704.0,1676.0,2025.0,2277.0,2669220.0,
1705.0,1675.0,2034.0,2288.0,2669223.0,
1704.0,1678.0,2042.0,2293.0,2669227.0,
1703.0,1678.0,2050.0,2304.0,2669231.0,
1704.0,1676.0,2058.0,2313.0,2669234.0,
1704.0,1677.0,2064.0,2323.0,2669238.0,
1703.0,1679.0,2073.0,2329.0,2669242.0,
1705.0,1676.0,2077.0,2337.0,2669245.0,
1705.0,1677.0,2084.0,2341.0,2669249.0,
1706.0,1675.0,2092.0,2349.0,2669252.0,
1703.0,1676.0,2098.0,2354.0,2669256.0,
1705.0,1676.0,2100.0,2361.0,2669260.0,
1705.0,1676.0,2107.0,2368.0,2669263.0,
1704.0,1676.0,2110.0,2375.0,2669267.0,
1704.0,1676.0,2115.0,2377.0,2669271.0,
1704.0,1675.0,2119.0,2381.0,2669274.0,
1703.0,1674.0,2120.0,2385.0,2669278.0,
1710.0,1675.0,2122.0,2385.0,2669282.0,
1704.0,1677.0,2123.0,2387.0,2669285.0,
1704.0,1676.0,2126.0,2385.0,2669289.0,
1704.0,1678.0,2126.0,2385.0,2669292.0,
1705.0,1676.0,2125.0,2384.0,2669296.0,
1702.0,1675.0,2133.0,2382.0,2669300.0,
1704.0,1672.0,2130.0,2380.0,2669303.0,
1705.0,1677.0,2131.0,2375.0,2669307.0,
1704.0,1677.0,2131.0,2373.0,2669311.0,
1704.0,1675.0,2132.0,2368.0,2669314.0,
1704.0,1675.0,2132.0,2367.0,2669318.0,
1705.0,1673.0,2129.0,2363.0,2669322.0,
1705.0,1673.0,2131.0,2357.0,2669325.0,
1703.0,1674.0,2129.0,2347.0,2669329.0,
1704.0,1672.0,2127.0,2343.0,2669332.0,
1706.0,1674.0,2126.0,2332.0,2669336.0,
1706.0,1673.0,2129.0,2321.0,2669340.0,
1705.0,1677.0,2126.0,2314.0,2669343.0,
1705.0,1673.0,2128.0,2303.0,2669347.0,
1705.0,1675.0,2122.0,2292.0,2669351.0,
1705.0,1674.0,2124.0,2279.0,2669354.0,
1704.0,1674.0,2121.0,2267.0,2669358.0,
1705.0,1672.0,2119.0,2253.0,2669361.0,
1704.0,1672.0,2118.0,2238.0,2669365.0,
1704.0,1674.0,2116.0,2227.0,2669369.0,
1705.0,1673.0,2115.0,2215.0,2669372.0,
1705.0,1674.0,2113.0,2201.0,2669376.0,
1705.0,1675.0,2109.0,2190.0,2669380.0,
1704.0,1671.0,2102.0,2179.0,2669383.0,
1704.0,1673.0,2101.0,2167.0,2669387.0,
1705.0,1674.0,2097.0,2158.0,2669391.0,
1703.0,1673.0,2097.0,2149.0,2669394.0,
1705.0,1673.0,2095.0,2135.0,2669398.0,
1705.0,1674.0,2089.0,2124.0,2669401.0,
1707.0,1673.0,2087.0,2116.0,2669405.0,
1704.0,1673.0,2080.0,2104.0,2669409.0,
1705.0,1672.0,2077.0,2097.0,2669412.0,
1705.0,1674.0,2069.0,2091.0,2669416.0,
1705.0,1672.0,2065.0,2075.0,2669420.0,
1705.0,1674.0,2062.0,2073.0,2669423.0,
1705.0,1672.0,2059.0,2061.0,2669427.0,
1705.0,1673.0,2052.0,2055.0,2669431.0,
1705.0,1673.0,2048.0,2051.0,2669434.0,
1704.0,1673.0,2041.0,2045.0,2669438.0,
1704.0,1672.0,2037.0,2041.0,2669441.0,
1705.0,1672.0,2035.0,2037.0,2669445.0,
1705.0,1671.0,2032.0,2032.0,2669449.0,
1705.0,1671.0,2028.0,2029.0,2669452.0,
1705.0,1676.0,2025.0,2023.0,2669456.0,
1705.0,1671.0,2025.0,2016.0,2669460.0,
1705.0,1671.0,2022.0,2014.0,2669463.0,
1705.0,1672.0,2019.0,2010.0,2669467.0,
1704.0,1672.0,2020.0,2006.0,2669471.0,
1706.0,1671.0,2020.0,2000.0,2669474.0,
1706.0,1671.0,2019.0,1996.0,2669478.0,
1705.0,1673.0,2018.0,1989.0,2669481.0,
1705.0,1671.0,2019.0,1982.0,2669485.0,
1705.0,1672.0,2020.0,1976.0,2669489.0,
1703.0,1673.0,2017.0,1971.0,2669492.0,
1705.0,1672.0,2016.0,1966.0,2669496.0,
1705.0,1672.0,2015.0,1964.0,2669500.0,
1704.0,1673.0,2016.0,1959.0,2669503.0,
1707.0,1671.0,2012.0,1955.0,2669507.0,
1706.0,1671.0,2011.0,1951.0,2669510.0,
1705.0,1674.0,2012.0,1948.0,2669514.0,
1706.0,1671.0,2013.0,1948.0,2669518.0,
1706.0,1669.0,2012.0,1950.0,2669521.0,
1705.0,1671.0,2012.0,1948.0,2669525.0,
1707.0,1669.0,2011.0,1945.0,2669529.0,
1705.0,1670.0,2010.0,1945.0,2669532.0,
1706.0,1669.0,2012.0,1943.0,2669536.0,
1705.0,1671.0,2012.0,1949.0,2669540.0,
1704.0,1670.0,2011.0,1937.0,2669543.0,
1705.0,1670.0,2010.0,1935.0,2669547.0,
1705.0,1670.0,2007.0,1932.0,2669550.0,
1706.0,1669.0,2009.0,1930.0,2669554.0,
1705.0,1673.0,2004.0,1927.0,2669558.0,
1706.0,1670.0,2005.0,1926.0,2669561.0,
1705.0,1669.0,2003.0,1924.0,2669565.0,
1706.0,1667.0,2003.0,1922.0,2669569.0,
1706.0,1664.0,2002.0,1921.0,2669572.0,
1704.0,1671.0,1999.0,1921.0,2669576.0,
1704.0,1669.0,1995.0,1920.0,2669580.0,
1706.0,1670.0,1994.0,1921.0,2669583.0,
1706.0,1672.0,1992.0,1921.0,2669587.0,
1705.0,1671.0,1989.0,1920.0,2669590.0,
1707.0,1670.0,1988.0,1919.0,2669594.0,
1706.0,1669.0,1984.0,1916.0,2669598.0,
1706.0,1671.0,1985.0,1914.0,2669601.0,
1705.0,1670.0,1984.0,1912.0,2669605.0,
1706.0,1669.0,1984.0,1912.0,2669609.0,
1705.0,1670.0,1983.0,1908.0,2669612.0,
1706.0,1666.0,1982.0,1903.0,2669616.0,
1706.0,1668.0,1980.0,1904.0,2669620.0,
1705.0,1673.0,1980.0,1899.0,2669623.0,
1708.0,1669.0,1978.0,1898.0,2669627.0,
1705.0,1667.0,1977.0,1893.0,2669630.0,
1706.0,1669.0,1975.0,1890.0,2669634.0,
1706.0,1668.0,1971.0,1889.0,2669638.0,
1706.0,1671.0,1971.0,1886.0,2669641.0,
1704.0,1670.0,1969.0,1887.0,2669645.0,
1706.0,1670.0,1968.0,1886.0,2669649.0,
1707.0,1669.0,1964.0,1886.0,2669652.0,
1706.0,1670.0,1961.0,1884.0,2669656.0,
1706.0,1664.0,1959.0,1884.0,2669659.0,
1705.0,1669.0,1958.0,1883.0,2669663.0,
1706.0,1670.0,1954.0,1880.0,2669667.0,
1706.0,1669.0,1952.0,1877.0,2669670.0,
1705.0,1668.0,1947.0,1877.0,2669674.0,
1703.0,1669.0,1949.0,1873.0,2669678.0,
1705.0,1670.0,1948.0,1872.0,2669681.0,
1706.0,1669.0,1942.0,1869.0,2669685.0,
1706.0,1669.0,1940.0,1869.0,2669689.0,
1707.0,1671.0,1939.0,1866.0,2669692.0,
1708.0,1667.0,1937.0,1861.0,2669696.0,
1706.0,1668.0,1937.0,1862.0,2669699.0,
1707.0,1668.0,1934.0,1861.0,2669703.0,
1706.0,1670.0,1933.0,1859.0,2669707.0,
1707.0,1671.0,1931.0,1862.0,2669710.0,
1706.0,1669.0,1932.0,1862.0,2669714.0,
1706.0,1668.0,1929.0,1860.0,2669718.0,
1705.0,1668.0,1930.0,1864.0,2669721.0,
1706.0,1669.0,1930.0,1862.0,2669725.0,
1706.0,1669.0,1926.0,1864.0,2669729.0,
1705.0,1667.0,1926.0,1863.0,2669732.0,
1706.0,1667.0,1925.0,1865.0,2669736.0,
1707.0,1667.0,1924.0,1869.0,2669739.0,
1707.0,1667.0,1926.0,1865.0,2669743.0,
1706.0,1667.0,1922.0,1864.0,2669747.0,
1707.0,1668.0,1920.0,1867.0,2669750.0,
1706.0,1672.0,1918.0,1865.0,2669754.0,
1706.0,1667.0,1915.0,1864.0,2669758.0,
1711.0,1668.0,1912.0,1865.0,2669761.0,
1707.0,1667.0,1913.0,1865.0,2669765.0,
1706.0,1669.0,1910.0,1871.0,2669768.0,
1705.0,1668.0,1911.0,1869.0,2669772.0,
1706.0,1669.0,1908.0,1870.0,2669776.0,
1712.0,1668.0,1908.0,1870.0,2669779.0,
1707.0,1668.0,1906.0,1870.0,2669783.0,
1704.0,1671.0,1909.0,1870.0,2669787.0,
1701.0,1670.0,1906.0,1872.0,2669790.0,
1707.0,1668.0,1906.0,1876.0,2669794.0,
1706.0,1668.0,1904.0,1874.0,2669798.0,
1706.0,1669.0,1905.0,1877.0,2669801.0,
1706.0,1670.0,1905.0,1877.0,2669805.0,
1707.0,1667.0,1906.0,1875.0,2669808.0,
1706.0,1667.0,1906.0,1880.0,2669812.0,
1707.0,1668.0,1907.0,1877.0,2669816.0,
1707.0,1668.0,1905.0,1879.0,2669819.0,
1706.0,1668.0,1901.0,1880.0,2669823.0,
1708.0,1668.0,1900.0,1877.0,2669827.0,
1707.0,1669.0,1903.0,1879.0,2669830.0,
1707.0,1668.0,1900.0,1878.0,2669834.0,
1707.0,1667.0,1900.0,1881.0,2669838.0,
1706.0,1667.0,1904.0,1882.0,2669841.0,
1708.0,1668.0,1905.0,1881.0,2669845.0,
1708.0,1669.0,1907.0,1881.0,2669848.0,
1707.0,1666.0,1905.0,1882.0,2669852.0,
1708.0,1667.0,1911.0,1879.0,2669856.0,
1706.0,1669.0,1904.0,1879.0,2669859.0,
1707.0,1661.0,1906.0,1877.0,2669863.0,
1707.0,1667.0,1905.0,1874.0,2669867.0,
1708.0,1668.0,1902.0,1875.0,2669870.0,
1706.0,1667.0,1900.0,1873.0,2669874.0,
1707.0,1667.0,1902.0,1869.0,2669878.0,
1706.0,1668.0,1902.0,1872.0,2669881.0,
1707.0,1667.0,1900.0,1870.0,2669885.0,
1707.0,1667.0,1899.0,1872.0,2669888.0,
1707.0,1667.0,1897.0,1871.0,2669892.0,
1707.0,1664.0,1896.0,1872.0,2669896.0,
1707.0,1670.0,1895.0,1870.0,2669899.0,
1707.0,1667.0,1894.0,1867.0,2669903.0,
1707.0,1667.0,1890.0,1867.0,2669907.0,
1713.0,1667.0,1887.0,1865.0,2669910.0,
1707.0,1668.0,1886.0,1865.0,2669914.0,
1708.0,1668.0,1882.0,1866.0,2669917.0,
1707.0,1666.0,1884.0,1865.0,2669921.0,
1706.0,1666.0,1884.0,1864.0,2669925.0,
1707.0,1668.0,1884.0,1863.0,2669928.0,
1708.0,1666.0,1881.0,1863.0,2669932.0,
1706.0,1669.0,1880.0,1862.0,2669936.0,
1707.0,1668.0,1880.0,1861.0,2669939.0,
1708.0,1668.0,1875.0,1862.0,2669943.0,
1706.0,1666.0,1878.0,1857.0,2669947.0,
1708.0,1667.0,1874.0,1862.0,2669950.0,
1706.0,1667.0,1874.0,1862.0,2669954.0,
1708.0,1666.0,1872.0,1865.0,2669957.0,
1708.0,1667.0,1871.0,1866.0,2669961.0,
1707.0,1669.0,1869.0,1867.0,2669965.0,
1707.0,1673.0,1871.0,1871.0,2669968.0,
1706.0,1665.0,1871.0,1873.0,2669972.0,
1708.0,1666.0,1873.0,1874.0,2669976.0,
1708.0,1667.0,1871.0,1881.0,2669979.0,
1707.0,1667.0,1871.0,1884.0,2669983.0,
1707.0,1668.0,1870.0,1890.0,2669987.0,
1708.0,1667.0,1872.0,1895.0,2669990.0,
1707.0,1668.0,1872.0,1902.0,2669994.0,
1706.0,1667.0,1872.0,1906.0,2669997.0,
1707.0,1669.0,1872.0,1916.0,2670001.0,
1708.0,1667.0,1873.0,1923.0,2670005.0,
1707.0,1668.0,1874.0,1932.0,2670008.0,
1707.0,1668.0,1873.0,1948.0,2670012.0,
1712.0,1668.0,1872.0,1961.0,2670016.0,
1708.0,1668.0,1874.0,1976.0,2670019.0,
1707.0,1668.0,1874.0,1994.0,2670023.0,
1707.0,1669.0,1876.0,2012.0,2670027.0,
1708.0,1668.0,1876.0,2027.0,2670030.0,
1708.0,1667.0,1881.0,2043.0,2670034.0,
1707.0,1668.0,1880.0,2060.0,2670037.0,
1708.0,1668.0,1882.0,2079.0,2670041.0,
1708.0,1670.0,1886.0,2098.0,2670045.0,
1707.0,1672.0,1889.0,2114.0,2670048.0,
1709.0,1668.0,1893.0,2126.0,2670052.0,
1707.0,1668.0,1899.0,2140.0,2670056.0,
1708.0,1668.0,1904.0,2151.0,2670059.0,
1709.0,1667.0,1909.0,2170.0,2670063.0,
1706.0,1669.0,1916.0,2181.0,2670067.0,
1708.0,1670.0,1921.0,2197.0,2670070.0,
1708.0,1669.0,1929.0,2210.0,2670074.0,
1708.0,1668.0,1936.0,2223.0,2670077.0,
1708.0,1667.0,1945.0,2237.0,2670081.0,
1708.0,1667.0,1951.0,2249.0,2670085.0,
1709.0,1669.0,1958.0,2265.0,2670088.0,
1709.0,1668.0,1966.0,2274.0,2670092.0,
1708.0,1670.0,1974.0,2282.0,2670096.0,
1708.0,1669.0,1981.0,2291.0,2670099.0,
1708.0,1668.0,1987.0,2300.0,2670103.0,
1709.0,1668.0,1994.0,2309.0,2670106.0,
1709.0,1669.0,2003.0,2313.0,2670110.0,
1708.0,1668.0,2008.0,2319.0,2670114.0,
1709.0,1669.0,2014.0,2323.0,2670117.0,
1716.0,1667.0,2021.0,2328.0,2670121.0,
1709.0,1670.0,2027.0,2332.0,2670125.0,
1708.0,1668.0,2031.0,2335.0,2670128.0,
1710.0,1669.0,2037.0,2340.0,2670132.0,
1708.0,1669.0,2039.0,2344.0,2670136.0,
1708.0,1669.0,2043.0,2344.0,2670139.0,
1709.0,1669.0,2045.0,2347.0,2670143.0,
1708.0,1666.0,2050.0,2345.0,2670146.0,
1709.0,1669.0,2054.0,2347.0,2670150.0,
1709.0,1665.0,2054.0,2348.0,2670154.0,
1709.0,1667.0,2056.0,2346.0,2670157.0,
1709.0,1668.0,2057.0,2340.0,2670161.0,
1710.0,1667.0,2058.0,2342.0,2670165.0,
1709.0,1669.0,2059.0,2339.0,2670168.0,
1710.0,1668.0,2061.0,2337.0,2670172.0,
1708.0,1668.0,2059.0,2336.0,2670176.0,
1708.0,1669.0,2062.0,2329.0,2670179.0,
1707.0,1668.0,2056.0,2319.0,2670183.0,
1712.0,1666.0,2057.0,2324.0,2670186.0,
1709.0,1667.0,2060.0,2322.0,2670190.0,
1708.0,1668.0,2053.0,2316.0,2670194.0,
1708.0,1663.0,2053.0,2311.0,2670197.0,
1708.0,1666.0,2052.0,2304.0,2670201.0,
1708.0,1666.0,2054.0,2298.0,2670205.0,
1708.0,1668.0,2051.0,2291.0,2670208.0,
1709.0,1667.0,2050.0,2280.0,2670212.0,
1710.0,1666.0,2047.0,2276.0,2670216.0,
1709.0,1667.0,2048.0,2268.0,2670219.0,
1709.0,1667.0,2046.0,2261.0,2670223.0,
1709.0,1666.0,2045.0,2252.0,2670226.0,
1709.0,1666.0,2044.0,2245.0,2670230.0,
1709.0,1668.0,2043.0,2235.0,2670234.0,
1709.0,1667.0,2046.0,2223.0,2670237.0,
1709.0,1666.0,2045.0,2214.0,2670241.0,
1710.0,1667.0,2047.0,2199.0,2670245.0,
1713.0,1667.0,2048.0,2186.0,2670248.0,
1709.0,1668.0,2045.0,2172.0,2670252.0,
1709.0,1666.0,2048.0,2168.0,2670255.0,
1709.0,1666.0,2045.0,2159.0,2670259.0,
1709.0,1667.0,2045.0,2147.0,2670263.0,
1709.0,1667.0,2043.0,2139.0,2670266.0,
1710.0,1667.0,2046.0,2129.0,2670270.0,
1709.0,1667.0,2041.0,2118.0,2670274.0,
1708.0,1667.0,2035.0,2110.0,2670277.0,
1710.0,1666.0,2035.0,2101.0,2670281.0,
1710.0,1666.0,2029.0,2092.0,2670285.0,
1709.0,1667.0,2029.0,2084.0,2670288.0,
1710.0,1666.0,2023.0,2076.0,2670292.0,
1708.0,1666.0,2021.0,2071.0,2670295.0,
1710.0,1666.0,2020.0,2066.0,2670299.0,
1710.0,1667.0,2016.0,2058.0,2670303.0,
1708.0,1668.0,2015.0,2053.0,2670306.0,
1710.0,1667.0,2010.0,2049.0,2670310.0,
1709.0,1668.0,2007.0,2044.0,2670314.0,
1709.0,1667.0,2002.0,2038.0,2670317.0,
1706.0,1668.0,1999.0,2035.0,2670321.0,
1708.0,1665.0,1998.0,2030.0,2670325.0,
1711.0,1666.0,2001.0,2027.0,2670328.0,
1711.0,1673.0,1998.0,2024.0,2670332.0,
1709.0,1666.0,1995.0,2020.0,2670335.0,
1709.0,1666.0,1994.0,2019.0,2670339.0,
1710.0,1665.0,1995.0,2012.0,2670343.0,
1709.0,1666.0,1994.0,2008.0,2670346.0,
1711.0,1666.0,1992.0,2008.0,2670350.0,
1707.0,1666.0,1993.0,2002.0,2670354.0,
1709.0,1666.0,1991.0,1999.0,2670357.0,
1709.0,1664.0,1988.0,1996.0,2670361.0,
1709.0,1668.0,1990.0,1996.0,2670365.0,
1710.0,1661.0,1988.0,1990.0,2670368.0,
1710.0,1666.0,1986.0,1989.0,2670372.0,
1709.0,1665.0,1988.0,1982.0,2670375.0,
1710.0,1665.0,1989.0,1976.0,2670379.0,
1711.0,1664.0,1988.0,1970.0,2670383.0,
1710.0,1667.0,1988.0,1965.0,2670386.0,
1710.0,1664.0,1987.0,1961.0,2670390.0,
1710.0,1666.0,1990.0,1958.0,2670394.0,
1709.0,1666.0,1987.0,1953.0,2670397.0,
1709.0,1667.0,1988.0,1947.0,2670401.0,
1710.0,1664.0,1986.0,1943.0,2670405.0,
1710.0,1665.0,1987.0,1941.0,2670408.0,
1709.0,1665.0,1986.0,1942.0,2670412.0,
1709.0,1665.0,1987.0,1941.0,2670415.0,
1709.0,1665.0,1986.0,1934.0,2670419.0,
1712.0,1665.0,1986.0,1928.0,2670423.0,
1709.0,1663.0,1986.0,1921.0,2670426.0,
1708.0,1664.0,1991.0,1918.0,2670430.0,
1712.0,1664.0,1985.0,1912.0,2670434.0,
1711.0,1665.0,1985.0,1910.0,2670437.0,
1710.0,1663.0,1984.0,1909.0,2670441.0,
1714.0,1665.0,1982.0,1905.0,2670444.0,
1710.0,1666.0,1983.0,1903.0,2670448.0,
1710.0,1665.0,1981.0,1904.0,2670452.0,
1710.0,1665.0,1980.0,1900.0,2670455.0,
1711.0,1664.0,1981.0,1900.0,2670459.0,
1704.0,1665.0,1980.0,1898.0,2670463.0,
1710.0,1664.0,1980.0,1896.0,2670466.0,
1710.0,1665.0,1976.0,1896.0,2670470.0,
1707.0,1665.0,1976.0,1894.0,2670474.0,
1710.0,1662.0,1977.0,1895.0,2670477.0,
1710.0,1666.0,1977.0,1896.0,2670481.0,
1715.0,1667.0,1979.0,1893.0,2670484.0,
1710.0,1665.0,1977.0,1899.0,2670488.0,
1710.0,1665.0,1977.0,1898.0,2670492.0,
1710.0,1664.0,1974.0,1903.0,2670495.0,
1711.0,1665.0,1979.0,1904.0,2670499.0,
1712.0,1664.0,1978.0,1906.0,2670503.0,
1710.0,1664.0,1976.0,1906.0,2670506.0,
1710.0,1666.0,1979.0,1904.0,2670510.0,
1710.0,1665.0,1978.0,1905.0,2670514.0,
1711.0,1664.0,1977.0,1904.0,2670517.0,
1711.0,1665.0,1974.0,1905.0,2670521.0,
1710.0,1663.0,1975.0,1904.0,2670524.0,
1709.0,1662.0,1976.0,1899.0,2670528.0,
1710.0,1665.0,1977.0,1899.0,2670532.0,
1710.0,1665.0,1973.0,1897.0,2670535.0,
1716.0,1664.0,1971.0,1897.0,2670539.0,
1711.0,1663.0,1971.0,1895.0,2670543.0,
1717.0,1666.0,1969.0,1892.0,2670546.0,
1710.0,1664.0,1968.0,1889.0,2670550.0,
1711.0,1664.0,1969.0,1888.0,2670554.0,
1711.0,1667.0,1965.0,1887.0,2670557.0,
1710.0,1663.0,1959.0,1886.0,2670561.0,
1710.0,1664.0,1964.0,1882.0,2670564.0,
1712.0,1663.0,1960.0,1887.0,2670568.0,
1710.0,1666.0,1960.0,1886.0,2670572.0,
1712.0,1665.0,1957.0,1883.0,2670575.0,
1709.0,1664.0,1955.0,1888.0,2670579.0,
1710.0,1664.0,1955.0,1881.0,2670583.0,
1711.0,1663.0,1953.0,1878.0,2670586.0,
1710.0,1664.0,1953.0,1876.0,2670590.0,
1712.0,1663.0,1946.0,1873.0,2670593.0,
1709.0,1665.0,1946.0,1873.0,2670597.0,
1711.0,1665.0,1944.0,1871.0,2670601.0,
1709.0,1663.0,1943.0,1868.0,2670604.0,
1708.0,1665.0,1941.0,1866.0,2670608.0,
1709.0,1663.0,1933.0,1867.0,2670612.0,
1713.0,1664.0,1937.0,1867.0,2670615.0,
1710.0,1665.0,1938.0,1869.0,2670619.0,
1710.0,1665.0,1933.0,1868.0,2670623.0,
1710.0,1663.0,1931.0,1868.0,2670626.0,
1711.0,1663.0,1929.0,1870.0,2670630.0,
1711.0,1662.0,1925.0,1870.0,2670633.0,
1714.0,1665.0,1921.0,1870.0,2670637.0,
1708.0,1664.0,1919.0,1873.0,2670641.0,
1710.0,1665.0,1917.0,1875.0,2670644.0,
1711.0,1664.0,1918.0,1877.0,2670648.0,
1710.0,1663.0,1915.0,1878.0,2670652.0,
1710.0,1665.0,1913.0,1878.0,2670655.0,
1711.0,1664.0,1914.0,1879.0,2670659.0,
1710.0,1662.0,1913.0,1880.0,2670663.0,
1708.0,1664.0,1912.0,1879.0,2670666.0,
1710.0,1664.0,1913.0,1881.0,2670670.0,
1708.0,1664.0,1909.0,1877.0,2670673.0,
1711.0,1663.0,1909.0,1881.0,2670677.0,
1710.0,1663.0,1909.0,1883.0,2670681.0,
1710.0,1664.0,1908.0,1883.0,2670684.0,
1710.0,1665.0,1909.0,1884.0,2670688.0,
1709.0,1663.0,1909.0,1889.0,2670692.0,
1712.0,1664.0,1910.0,1887.0,2670695.0,
1711.0,1665.0,1911.0,1886.0,2670699.0,
1709.0,1664.0,1911.0,1884.0,2670703.0,
1710.0,1664.0,1911.0,1885.0,2670706.0,
1707.0,1661.0,1910.0,1885.0,2670710.0,
1711.0,1661.0,1911.0,1884.0,2670713.0,
1710.0,1662.0,1910.0,1885.0,2670717.0,
1710.0,1664.0,1910.0,1884.0,2670721.0,
1711.0,1665.0,1910.0,1885.0,2670724.0,
1712.0,1663.0,1913.0,1886.0,2670728.0,
1711.0,1664.0,1913.0,1885.0,2670732.0,
1710.0,1665.0,1912.0,1884.0,2670735.0,
1709.0,1663.0,1910.0,1885.0,2670739.0,
1712.0,1665.0,1910.0,1887.0,2670742.0,
1711.0,1665.0,1913.0,1889.0,2670746.0,
1711.0,1665.0,1914.0,1891.0,2670750.0,
1710.0,1663.0,1910.0,1891.0,2670753.0,
1711.0,1663.0,1911.0,1890.0,2670757.0,
1712.0,1663.0,1912.0,1892.0,2670761.0,
1711.0,1662.0,1910.0,1891.0,2670764.0,
1712.0,1665.0,1902.0,1888.0,2670768.0,
1711.0,1663.0,1907.0,1888.0,2670772.0,
1711.0,1664.0,1905.0,1887.0,2670775.0,
1712.0,1663.0,1906.0,1884.0,2670779.0,
1711.0,1665.0,1905.0,1881.0,2670782.0,
1711.0,1663.0,1900.0,1882.0,2670786.0,
1711.0,1663.0,1900.0,1879.0,2670790.0,
1715.0,1663.0,1896.0,1881.0,2670793.0,
1711.0,1662.0,1891.0,1881.0,2670797.0,
1711.0,1664.0,1892.0,1885.0,2670801.0,
1711.0,1663.0,1888.0,1882.0,2670804.0,
1711.0,1661.0,1889.0,1884.0,2670808.0,
1713.0,1662.0,1880.0,1880.0,2670812.0,
1711.0,1664.0,1889.0,1881.0,2670815.0,
1711.0,1663.0,1889.0,1878.0,2670819.0,
1711.0,1665.0,1888.0,1882.0,2670822.0,
1711.0,1664.0,1889.0,1875.0,2670826.0,
1712.0,1664.0,1886.0,1879.0,2670830.0,
1712.0,1660.0,1889.0,1877.0,2670833.0,
1711.0,1664.0,1887.0,1881.0,2670837.0,
1710.0,1662.0,1887.0,1881.0,2670841.0,
1711.0,1664.0,1888.0,1883.0,2670844.0,
1712.0,1663.0,1886.0,1890.0,2670848.0,
1711.0,1663.0,1887.0,1887.0,2670852.0,
1713.0,1664.0,1886.0,1893.0,2670855.0,
1709.0,1664.0,1882.0,1897.0,2670859.0,
1710.0,1664.0,1882.0,1900.0,2670862.0,
1711.0,1663.0,1884.0,1905.0,2670866.0,
1712.0,1664.0,1882.0,1910.0,2670870.0,
1713.0,1661.0,1885.0,1916.0,2670873.0,
1711.0,1665.0,1880.0,1923.0,2670877.0,
1711.0,1663.0,1885.0,1926.0,2670881.0,
1709.0,1665.0,1885.0,1933.0,2670884.0,
1712.0,1664.0,1886.0,1941.0,2670888.0,
1711.0,1662.0,1884.0,1951.0,2670892.0,
1711.0,1664.0,1887.0,1959.0,2670895.0,
1711.0,1665.0,1889.0,1970.0,2670899.0,
1711.0,1660.0,1889.0,1981.0,2670902.0,
1712.0,1664.0,1890.0,1993.0,2670906.0,
1712.0,1664.0,1890.0,2007.0,2670910.0,
1711.0,1665.0,1892.0,2021.0,2670913.0,
1711.0,1666.0,1894.0,2037.0,2670917.0,
1712.0,1667.0,1896.0,2051.0,2670921.0,
1710.0,1664.0,1897.0,2066.0,2670924.0,
1711.0,1665.0,1899.0,2079.0,2670928.0,
1712.0,1666.0,1903.0,2091.0,2670931.0,
1712.0,1665.0,1906.0,2106.0,2670935.0,
1711.0,1667.0,1906.0,2122.0,2670939.0,
1712.0,1664.0,1915.0,2133.0,2670942.0,
1711.0,1664.0,1917.0,2145.0,2670946.0,
1711.0,1664.0,1924.0,2162.0,2670950.0,
1712.0,1662.0,1928.0,2175.0,2670953.0,
1712.0,1665.0,1933.0,2190.0,2670957.0,
1711.0,1666.0,1937.0,2205.0,2670961.0,
1711.0,1667.0,1943.0,2219.0,2670964.0,
1713.0,1663.0,1948.0,2236.0,2670968.0,
1712.0,1665.0,1955.0,2246.0,2670971.0,
1713.0,1664.0,1962.0,2255.0,2670975.0,
1713.0,1665.0,1967.0,2266.0,2670979.0,
1713.0,1664.0,1971.0,2274.0,2670982.0,
1713.0,1665.0,1979.0,2287.0,2670986.0,
1712.0,1666.0,1983.0,2293.0,2670990.0,
1710.0,1665.0,1990.0,2302.0,2670993.0,
1712.0,1665.0,1993.0,2304.0,2670997.0,
1713.0,1665.0,2004.0,2311.0,2671001.0,
1712.0,1664.0,2008.0,2312.0,2671004.0,
1713.0,1668.0,2015.0,2316.0,2671008.0,
1710.0,1665.0,2019.0,2319.0,2671011.0,
1713.0,1668.0,2021.0,2321.0,2671015.0,
1712.0,1665.0,2023.0,2323.0,2671019.0,
1713.0,1665.0,2026.0,2321.0,2671022.0,
1711.0,1666.0,2029.0,2323.0,2671026.0,
1713.0,1664.0,2034.0,2323.0,2671030.0,
1715.0,1665.0,2034.0,2320.0,2671033.0,
1713.0,1666.0,2036.0,2319.0,2671037.0,
1712.0,1665.0,2038.0,2326.0,2671041.0,
1712.0,1665.0,2045.0,2313.0,2671044.0,
1713.0,1664.0,2038.0,2313.0,2671048.0,
1713.0,1665.0,2037.0,2310.0,2671051.0,
1713.0,1666.0,2039.0,2307.0,2671055.0,
1713.0,1665.0,2039.0,2305.0,2671059.0,
1714.0,1664.0,2035.0,2304.0,2671062.0,
1714.0,1664.0,2038.0,2299.0,2671066.0,
1713.0,1665.0,2036.0,2297.0,2671070.0,
1713.0,1666.0,2036.0,2291.0,2671073.0,
1712.0,1665.0,2037.0,2286.0,2671077.0,
1713.0,1664.0,2033.0,2279.0,2671080.0,
1714.0,1666.0,2032.0,2272.0,2671084.0,
1714.0,1665.0,2032.0,2266.0,2671088.0,
1713.0,1666.0,2027.0,2258.0,2671091.0,
1713.0,1665.0,2023.0,2253.0,2671095.0,
1713.0,1664.0,2026.0,2245.0,2671099.0,
1713.0,1665.0,2021.0,2236.0,2671102.0,
1714.0,1669.0,2017.0,2227.0,2671106.0,
1713.0,1665.0,2015.0,2220.0,2671110.0,
1713.0,1664.0,2012.0,2211.0,2671113.0,
1713.0,1664.0,2010.0,2201.0,2671117.0,
1713.0,1664.0,2008.0,2195.0,2671120.0,
1712.0,1662.0,2006.0,2182.0,2671124.0,
1711.0,1665.0,2003.0,2180.0,2671128.0,
1712.0,1664.0,2001.0,2173.0,2671131.0,
1713.0,1663.0,2000.0,2165.0,2671135.0,
1713.0,1664.0,1995.0,2170.0,2671139.0,
1714.0,1664.0,1995.0,2154.0,2671142.0,
1713.0,1663.0,1992.0,2147.0,2671146.0,
1713.0,1664.0,1991.0,2146.0,2671150.0,
1713.0,1664.0,1986.0,2131.0,2671153.0,
1713.0,1664.0,1986.0,2123.0,2671157.0,
1714.0,1664.0,1980.0,2113.0,2671160.0,
1713.0,1665.0,1980.0,2104.0,2671164.0,
1713.0,1664.0,1979.0,2092.0,2671168.0,
1713.0,1661.0,1979.0,2084.0,2671171.0,
1714.0,1665.0,1976.0,2079.0,2671175.0,
1713.0,1663.0,1979.0,2073.0,2671179.0,
1713.0,1664.0,1976.0,2068.0,2671182.0,
1714.0,1663.0,1979.0,2060.0,2671186.0,
1712.0,1666.0,1978.0,2059.0,2671190.0,
1713.0,1665.0,1979.0,2050.0,2671193.0,
1713.0,1664.0,1975.0,2044.0,2671197.0,
1713.0,1662.0,1979.0,2038.0,2671200.0,
1713.0,1663.0,1978.0,2034.0,2671204.0,
1713.0,1664.0,1983.0,2030.0,2671208.0,
1717.0,1665.0,1981.0,2024.0,2671211.0,
1714.0,1660.0,1979.0,2022.0,2671215.0,
1713.0,1662.0,1983.0,2018.0,2671219.0,
1713.0,1662.0,1985.0,2012.0,2671222.0,
1714.0,1663.0,1983.0,2007.0,2671226.0,
1715.0,1664.0,1983.0,2008.0,2671229.0,
1714.0,1663.0,1985.0,2002.0,2671233.0,
1713.0,1663.0,1984.0,2001.0,2671237.0,
1713.0,1663.0,1987.0,1997.0,2671240.0,
1713.0,1663.0,1985.0,1991.0,2671244.0,
1715.0,1663.0,1994.0,1990.0,2671248.0,
1714.0,1664.0,1988.0,1988.0,2671251.0,
1714.0,1663.0,1992.0,1984.0,2671255.0,
1713.0,1664.0,1993.0,1982.0,2671259.0,
1714.0,1664.0,1992.0,1980.0,2671262.0,
1710.0,1663.0,1995.0,1977.0,2671266.0,
1714.0,1663.0,1994.0,1977.0,2671269.0,
1713.0,1662.0,1997.0,1974.0,2671273.0,
1714.0,1662.0,1998.0,1972.0,2671277.0,
1714.0,1662.0,2001.0,1970.0,2671280.0,
1713.0,1663.0,2003.0,1967.0,2671284.0,
1714.0,1664.0,2003.0,1968.0,2671288.0,
1713.0,1664.0,2004.0,1967.0,2671291.0,
1713.0,1661.0,2005.0,1965.0,2671295.0,
1713.0,1665.0,2004.0,1963.0,2671299.0,
1715.0,1664.0,2005.0,1960.0,2671302.0,
1713.0,1661.0,2007.0,1957.0,2671306.0,
1715.0,1663.0,2011.0,1951.0,2671309.0,
1715.0,1664.0,2009.0,1947.0,2671313.0,
1714.0,1663.0,2008.0,1944.0,2671317.0,
1714.0,1661.0,2011.0,1943.0,2671320.0,
1713.0,1662.0,2009.0,1940.0,2671324.0,
1714.0,1663.0,2008.0,1945.0,2671328.0,
1713.0,1664.0,2004.0,1938.0,2671331.0,
1714.0,1663.0,2006.0,1938.0,2671335.0,
1714.0,1663.0,2005.0,1935.0,2671339.0,
1714.0,1663.0,2004.0,1934.0,2671342.0,
1712.0,1662.0,2002.0,1931.0,2671346.0,
1713.0,1664.0,2003.0,1931.0,2671349.0,
1714.0,1663.0,2001.0,1929.0,2671353.0,
1714.0,1662.0,1999.0,1926.0,2671357.0,
1713.0,1661.0,1998.0,1925.0,2671360.0,
1713.0,1664.0,1996.0,1922.0,2671364.0,
1715.0,1663.0,1996.0,1916.0,2671368.0,
1714.0,1662.0,1994.0,1913.0,2671371.0,
1714.0,1660.0,1992.0,1909.0,2671375.0,
1714.0,1661.0,1994.0,1910.0,2671378.0,
1713.0,1665.0,1991.0,1908.0,2671382.0,
1714.0,1662.0,1986.0,1905.0,2671386.0,
1713.0,1660.0,1987.0,1904.0,2671389.0,
1714.0,1661.0,1985.0,1906.0,2671393.0,
1714.0,1663.0,1983.0,1905.0,2671397.0,
1715.0,1662.0,1980.0,1907.0,2671400.0,
1713.0,1663.0,1980.0,1909.0,2671404.0,
1714.0,1664.0,1977.0,1911.0,2671408.0,
1714.0,1663.0,1976.0,1911.0,2671411.0,
1713.0,1662.0,1977.0,1908.0,2671415.0,
1714.0,1663.0,1976.0,1912.0,2671418.0,
1714.0,1663.0,1975.0,1913.0,2671422.0,
1714.0,1663.0,1974.0,1915.0,2671426.0,
1714.0,1661.0,1977.0,1914.0,2671429.0,
1713.0,1663.0,1970.0,1912.0,2671433.0,
1719.0,1662.0,1976.0,1911.0,2671437.0,
1715.0,1662.0,1974.0,1909.0,2671440.0,
1714.0,1662.0,1971.0,1907.0,2671444.0,
1715.0,1663.0,1968.0,1904.0,2671448.0,
1713.0,1663.0,1968.0,1902.0,2671451.0,
1713.0,1663.0,1971.0,1899.0,2671455.0,
1714.0,1663.0,1969.0,1897.0,2671458.0,
1713.0,1663.0,1970.0,1896.0,2671462.0,
1714.0,1661.0,1964.0,1895.0,2671466.0,
1714.0,1662.0,1967.0,1893.0,2671469.0,
1715.0,1661.0,1964.0,1893.0,2671473.0,
1714.0,1661.0,1958.0,1891.0,2671477.0,
1713.0,1660.0,1962.0,1891.0,2671480.0,
1715.0,1661.0,1963.0,1890.0,2671484.0,
1715.0,1662.0,1962.0,1891.0,2671488.0,
1714.0,1662.0,1960.0,1890.0,2671491.0,
1715.0,1662.0,1960.0,1889.0,2671495.0,
1715.0,1662.0,1960.0,1891.0,2671498.0,
1714.0,1663.0,1957.0,1894.0,2671502.0,
1714.0,1661.0,1953.0,1891.0,2671506.0,
1715.0,1661.0,1953.0,1892.0,2671509.0,
1714.0,1661.0,1950.0,1892.0,2671513.0,
1715.0,1661.0,1948.0,1895.0,2671517.0,
1715.0,1662.0,1947.0,1898.0,2671520.0,
1714.0,1662.0,1946.0,1901.0,2671524.0,
1715.0,1664.0,1944.0,1906.0,2671527.0,
1713.0,1662.0,1940.0,1905.0,2671531.0,
1714.0,1662.0,1942.0,1900.0,2671535.0,
1714.0,1661.0,1941.0,1905.0,2671538.0,
1713.0,1662.0,1943.0,1906.0,2671542.0,
1715.0,1661.0,1939.0,1903.0,2671546.0,
1715.0,1663.0,1938.0,1904.0,2671549.0,
1714.0,1656.0,1935.0,1904.0,2671553.0,
1715.0,1661.0,1933.0,1902.0,2671557.0,
1712.0,1661.0,1928.0,1905.0,2671560.0,
1714.0,1664.0,1928.0,1907.0,2671564.0,
1718.0,1661.0,1930.0,1910.0,2671567.0,
1715.0,1661.0,1930.0,1911.0,2671571.0,
1715.0,1662.0,1932.0,1914.0,2671575.0,
1715.0,1658.0,1929.0,1919.0,2671578.0,
1714.0,1661.0,1928.0,1918.0,2671582.0,
1715.0,1663.0,1929.0,1925.0,2671586.0,
1713.0,1661.0,1929.0,1926.0,2671589.0,
1714.0,1661.0,1928.0,1927.0,2671593.0,
1714.0,1663.0,1925.0,1927.0,2671597.0,
1720.0,1663.0,1927.0,1927.0,2671600.0,
1713.0,1662.0,1926.0,1929.0,2671604.0,
1715.0,1664.0,1924.0,1926.0,2671607.0,
1714.0,1665.0,1922.0,1927.0,2671611.0,
1716.0,1663.0,1924.0,1926.0,2671615.0,
1715.0,1662.0,1923.0,1927.0,2671618.0,
1714.0,1660.0,1923.0,1928.0,2671622.0,
1715.0,1661.0,1923.0,1926.0,2671626.0,
1715.0,1662.0,1926.0,1926.0,2671629.0,
1716.0,1660.0,1925.0,1920.0,2671633.0,
1714.0,1661.0,1924.0,1926.0,2671637.0,
1715.0,1660.0,1924.0,1925.0,2671640.0,
1717.0,1662.0,1919.0,1926.0,2671644.0,
1715.0,1660.0,1924.0,1926.0,2671647.0,
1715.0,1661.0,1923.0,1924.0,2671651.0,
1715.0,1662.0,1926.0,1918.0,2671655.0,
1714.0,1662.0,1923.0,1917.0,2671658.0,
1714.0,1661.0,1926.0,1917.0,2671662.0,
1715.0,1661.0,1925.0,1914.0,2671666.0,
1715.0,1661.0,1926.0,1914.0,2671669.0,
1716.0,1662.0,1924.0,1911.0,2671673.0,
1715.0,1663.0,1921.0,1907.0,2671676.0,
1715.0,1662.0,1922.0,1908.0,2671680.0,
1715.0,1662.0,1918.0,1907.0,2671684.0,
1715.0,1660.0,1918.0,1906.0,2671687.0,
1715.0,1659.0,1918.0,1906.0,2671691.0,
1715.0,1660.0,1919.0,1902.0,2671695.0,
1715.0,1661.0,1917.0,1902.0,2671698.0,
1716.0,1661.0,1914.0,1899.0,2671702.0,
1721.0,1660.0,1915.0,1900.0,2671706.0,
1716.0,1661.0,1913.0,1897.0,2671709.0,
1715.0,1662.0,1911.0,1898.0,2671713.0,
1714.0,1662.0,1908.0,1898.0,2671716.0,
1715.0,1660.0,1910.0,1896.0,2671720.0,
1715.0,1660.0,1906.0,1900.0,2671724.0,
1716.0,1661.0,1908.0,1899.0,2671727.0,
1715.0,1664.0,1902.0,1903.0,2671731.0,
1715.0,1661.0,1902.0,1904.0,2671735.0,
1715.0,1662.0,1902.0,1908.0,2671738.0,
1715.0,1661.0,1903.0,1909.0,2671742.0,
1715.0,1660.0,1903.0,1915.0,2671746.0,
1715.0,1660.0,1902.0,1922.0,2671749.0,
1717.0,1661.0,1904.0,1922.0,2671753.0,
1714.0,1664.0,1907.0,1930.0,2671756.0,
1714.0,1661.0,1910.0,1939.0,2671760.0,
1717.0,1660.0,1908.0,1946.0,2671764.0,
1716.0,1661.0,1909.0,1953.0,2671767.0,
1716.0,1661.0,1915.0,1961.0,2671771.0,
1715.0,1661.0,1913.0,1973.0,2671775.0,
1713.0,1661.0,1913.0,1982.0,2671778.0,
1715.0,1659.0,1916.0,1988.0,2671782.0,
1715.0,1662.0,1915.0,2000.0,2671786.0,
1715.0,1662.0,1920.0,2007.0,2671789.0,
1717.0,1661.0,1922.0,2018.0,2671793.0,
1715.0,1662.0,1925.0,2032.0,2671796.0,
1715.0,1660.0,1929.0,2045.0,2671800.0,
1714.0,1661.0,1933.0,2061.0,2671804.0,
1715.0,1663.0,1934.0,2076.0,2671807.0,
1715.0,1664.0,1944.0,2088.0,2671811.0,
1716.0,1661.0,1941.0,2106.0,2671815.0,
1716.0,1662.0,1945.0,2119.0,2671818.0,
1716.0,1663.0,1951.0,2135.0,2671822.0,
1716.0,1664.0,1956.0,2149.0,2671825.0,
1716.0,1662.0,1960.0,2161.0,2671829.0,
1716.0,1661.0,1969.0,2171.0,2671833.0,
1716.0,1663.0,1975.0,2186.0,2671836.0,
1715.0,1660.0,1980.0,2199.0,2671840.0,
1716.0,1663.0,1987.0,2212.0,2671844.0,
1717.0,1660.0,1994.0,2225.0,2671847.0,
1716.0,1665.0,2000.0,2236.0,2671851.0,
1711.0,1663.0,2008.0,2249.0,2671855.0,
1716.0,1663.0,2014.0,2260.0,2671858.0,
1716.0,1660.0,2019.0,2271.0,2671862.0,
1716.0,1661.0,2025.0,2282.0,2671865.0,
1716.0,1663.0,2031.0,2289.0,2671869.0,
1721.0,1661.0,2038.0,2299.0,2671873.0,
1716.0,1664.0,2043.0,2309.0,2671876.0,
1716.0,1663.0,2049.0,2317.0,2671880.0,
1716.0,1660.0,2053.0,2322.0,2671884.0,
1715.0,1663.0,2056.0,2329.0,2671887.0,
1716.0,1662.0,2062.0,2334.0,2671891.0,
1716.0,1663.0,2063.0,2339.0,2671895.0,
1716.0,1662.0,2068.0,2344.0,2671898.0,
1716.0,1660.0,2070.0,2345.0,2671902.0,
1717.0,1662.0,2073.0,2345.0,2671905.0,
1716.0,1662.0,2072.0,2347.0,2671909.0,
1717.0,1662.0,2072.0,2345.0,2671913.0,
1715.0,1662.0,2072.0,2339.0,2671916.0,
1716.0,1662.0,2073.0,2337.0,2671920.0,
1716.0,1661.0,2075.0,2334.0,2671924.0,
1717.0,1661.0,2075.0,2330.0,2671927.0,
1716.0,1661.0,2072.0,2329.0,2671931.0,
1712.0,1661.0,2074.0,2325.0,2671935.0,
1716.0,1663.0,2075.0,2321.0,2671938.0,
1716.0,1664.0,2074.0,2316.0,2671942.0,
1717.0,1660.0,2072.0,2312.0,2671945.0,
1714.0,1663.0,2064.0,2303.0,2671949.0,
1715.0,1662.0,2069.0,2297.0,2671953.0,
1717.0,1662.0,2068.0,2291.0,2671956.0,
1716.0,1662.0,2067.0,2283.0,2671960.0,
1717.0,1664.0,2068.0,2275.0,2671964.0,
1717.0,1661.0,2062.0,2269.0,2671967.0,
1716.0,1660.0,2063.0,2260.0,2671971.0,
1716.0,1665.0,2056.0,2255.0,2671974.0,
1716.0,1663.0,2055.0,2246.0,2671978.0,
1717.0,1664.0,2052.0,2238.0,2671982.0,
1716.0,1662.0,2050.0,2231.0,2671985.0,
1722.0,1663.0,2046.0,2221.0,2671989.0,
1716.0,1661.0,2041.0,2215.0,2671993.0,
1715.0,1661.0,2037.0,2207.0,2671996.0,
1717.0,1662.0,2035.0,2198.0,2672000.0,
1717.0,1662.0,2032.0,2187.0,2672004.0,
1716.0,1661.0,2030.0,2179.0,2672007.0,
1716.0,1661.0,2028.0,2171.0,2672011.0,
1716.0,1662.0,2022.0,2161.0,2672014.0,
1723.0,1664.0,2023.0,2154.0,2672018.0,
1717.0,1663.0,2017.0,2142.0,2672022.0,
1716.0,1660.0,2013.0,2134.0,2672025.0,
1715.0,1661.0,2010.0,2127.0,2672029.0,
1716.0,1661.0,2009.0,2117.0,2672033.0,
1716.0,1661.0,2006.0,2111.0,2672036.0,
1716.0,1660.0,2006.0,2103.0,2672040.0,
1722.0,1661.0,2001.0,2097.0,2672044.0,
1711.0,1657.0,2001.0,2089.0,2672047.0,
1715.0,1664.0,1998.0,2085.0,2672051.0,
1716.0,1662.0,1998.0,2078.0,2672054.0,
1716.0,1660.0,1998.0,2074.0,2672058.0,
1716.0,1662.0,1998.0,2070.0,2672062.0,
1717.0,1663.0,1996.0,2066.0,2672065.0,
1717.0,1660.0,1998.0,2063.0,2672069.0,
1717.0,1661.0,2000.0,2057.0,2672073.0,
1718.0,1661.0,2001.0,2055.0,2672076.0,
1716.0,1658.0,2002.0,2050.0,2672080.0,
1716.0,1661.0,2003.0,2045.0,2672084.0,
1716.0,1660.0,2002.0,2047.0,2672087.0,
1716.0,1661.0,2004.0,2041.0,2672091.0,
1715.0,1659.0,2004.0,2040.0,2672094.0,
1716.0,1661.0,2005.0,2036.0,2672098.0,
1718.0,1661.0,2007.0,2031.0,2672102.0,
1716.0,1659.0,2005.0,2029.0,2672105.0,
1716.0,1661.0,2007.0,2022.0,2672109.0,
1716.0,1663.0,2005.0,2017.0,2672113.0,
1716.0,1659.0,2006.0,2011.0,2672116.0,
1713.0,1662.0,2007.0,2006.0,2672120.0,
1714.0,1660.0,2006.0,2003.0,2672123.0,
1715.0,1663.0,2007.0,2000.0,2672127.0,
1717.0,1662.0,2006.0,1999.0,2672131.0,
1716.0,1665.0,2002.0,1994.0,2672134.0,
1716.0,1660.0,2002.0,1991.0,2672138.0,
1717.0,1664.0,2003.0,1986.0,2672142.0,
1716.0,1660.0,2005.0,1988.0,2672145.0,
1716.0,1661.0,2004.0,1986.0,2672149.0,
1715.0,1661.0,2007.0,1983.0,2672153.0,
1715.0,1660.0,2006.0,1984.0,2672156.0,
1716.0,1660.0,2014.0,1982.0,2672160.0,
1716.0,1661.0,2015.0,1982.0,2672163.0,
1716.0,1660.0,2016.0,1983.0,2672167.0,
1716.0,1662.0,2017.0,1982.0,2672171.0,
1716.0,1661.0,2017.0,1980.0,2672174.0,
1715.0,1664.0,2020.0,1979.0,2672178.0,
1716.0,1660.0,2022.0,1978.0,2672182.0,
1716.0,1660.0,2021.0,1976.0,2672185.0,
1717.0,1661.0,2023.0,1973.0,2672189.0,
1717.0,1658.0,2020.0,1969.0,2672193.0,
1715.0,1660.0,2024.0,1966.0,2672196.0,
1715.0,1658.0,2019.0,1960.0,2672200.0,
1716.0,1661.0,2018.0,1959.0,2672203.0,
1716.0,1659.0,2014.0,1954.0,2672207.0,
1715.0,1660.0,2017.0,1956.0,2672211.0,
1716.0,1661.0,2008.0,1949.0,2672214.0,
1717.0,1661.0,2012.0,1948.0,2672218.0,
1715.0,1659.0,2010.0,1942.0,2672222.0,
1716.0,1659.0,2009.0,1942.0,2672225.0,
1716.0,1658.0,2011.0,1938.0,2672229.0,
1714.0,1661.0,2007.0,1938.0,2672233.0,
1715.0,1662.0,2005.0,1937.0,2672236.0,
1718.0,1659.0,2003.0,1935.0,2672240.0,
1716.0,1666.0,2003.0,1932.0,2672243.0,
1715.0,1659.0,1999.0,1935.0,2672247.0,
1716.0,1661.0,1998.0,1932.0,2672251.0,
1716.0,1659.0,1993.0,1933.0,2672254.0,
1715.0,1659.0,1993.0,1934.0,2672258.0,
1715.0,1660.0,1991.0,1931.0,2672262.0,
1716.0,1660.0,1990.0,1932.0,2672265.0,
1716.0,1659.0,1988.0,1932.0,2672269.0,
1716.0,1661.0,1988.0,1931.0,2672272.0,
1716.0,1665.0,1991.0,1935.0,2672276.0,
1715.0,1660.0,1991.0,1936.0,2672280.0,
1716.0,1660.0,1989.0,1939.0,2672283.0,
1716.0,1660.0,1986.0,1939.0,2672287.0,
1713.0,1659.0,1986.0,1939.0,2672291.0,
1715.0,1659.0,1981.0,1941.0,2672294.0,
1715.0,1660.0,1979.0,1940.0,2672298.0,
1716.0,1660.0,1976.0,1945.0,2672302.0,
1716.0,1661.0,1974.0,1944.0,2672305.0,
1719.0,1660.0,1971.0,1945.0,2672309.0,
1717.0,1661.0,1970.0,1944.0,2672312.0,
1716.0,1661.0,1968.0,1950.0,2672316.0,
1715.0,1662.0,1967.0,1947.0,2672320.0,
1718.0,1660.0,1969.0,1947.0,2672323.0,
1717.0,1661.0,1963.0,1948.0,2672327.0,
1720.0,1657.0,1962.0,1946.0,2672331.0,
1716.0,1661.0,1963.0,1943.0,2672334.0,
1714.0,1659.0,1964.0,1941.0,2672338.0,
1716.0,1661.0,1963.0,1942.0,2672342.0,
1716.0,1664.0,1965.0,1943.0,2672345.0,
1716.0,1660.0,1966.0,1940.0,2672349.0,
1716.0,1661.0,1970.0,1940.0,2672352.0,
1715.0,1660.0,1969.0,1937.0,2672356.0,
1717.0,1659.0,1971.0,1935.0,2672360.0,
1717.0,1657.0,1974.0,1936.0,2672363.0,
1716.0,1661.0,1974.0,1933.0,2672367.0,
1716.0,1659.0,1976.0,1933.0,2672371.0,
1716.0,1660.0,1972.0,1932.0,2672374.0,
1720.0,1659.0,1974.0,1930.0,2672378.0,
1717.0,1659.0,1973.0,1927.0,2672382.0,
1716.0,1659.0,1972.0,1926.0,2672385.0,
1716.0,1661.0,1970.0,1921.0,2672389.0,
1716.0,1658.0,1971.0,1916.0,2672392.0,
1715.0,1659.0,1969.0,1917.0,2672396.0,
1717.0,1660.0,1968.0,1912.0,2672400.0,
1716.0,1660.0,1966.0,1912.0,2672403.0,
1715.0,1659.0,1964.0,1910.0,2672407.0,
1716.0,1659.0,1964.0,1912.0,2672411.0,
1717.0,1659.0,1965.0,1911.0,2672414.0,
1717.0,1658.0,1964.0,1914.0,2672418.0,
1718.0,1660.0,1963.0,1910.0,2672422.0,
1716.0,1661.0,1962.0,1908.0,2672425.0,
1715.0,1658.0,1963.0,1909.0,2672429.0,
1717.0,1660.0,1959.0,1909.0,2672432.0,
1717.0,1655.0,1960.0,1910.0,2672436.0,
1716.0,1661.0,1957.0,1918.0,2672440.0,
1718.0,1658.0,1959.0,1919.0,2672443.0,
1716.0,1661.0,1962.0,1919.0,2672447.0,
1716.0,1659.0,1959.0,1924.0,2672451.0,
1717.0,1661.0,1961.0,1923.0,2672454.0,
1718.0,1661.0,1962.0,1921.0,2672458.0,
1717.0,1659.0,1962.0,1922.0,2672461.0,
1716.0,1659.0,1962.0,1922.0,2672465.0,
1716.0,1659.0,1964.0,1924.0,2672469.0,
1718.0,1660.0,1963.0,1924.0,2672472.0,
1716.0,1659.0,1962.0,1930.0,2672476.0,
1716.0,1660.0,1963.0,1932.0,2672480.0,
1716.0,1658.0,1960.0,1934.0,2672483.0,
1717.0,1660.0,1961.0,1935.0,2672487.0,
1716.0,1660.0,1961.0,1935.0,2672491.0,
1716.0,1658.0,1959.0,1935.0,2672494.0,
1717.0,1659.0,1959.0,1933.0,2672498.0,
1717.0,1659.0,1954.0,1935.0,2672501.0,
1718.0,1658.0,1956.0,1933.0,2672505.0,
1717.0,1659.0,1958.0,1934.0,2672509.0,
1717.0,1660.0,1957.0,1931.0,2672512.0,
1719.0,1659.0,1957.0,1929.0,2672516.0,
1716.0,1660.0,1954.0,1925.0,2672520.0,
1717.0,1659.0,1959.0,1921.0,2672523.0,
1716.0,1660.0,1961.0,1918.0,2672527.0,
1717.0,1662.0,1960.0,1916.0,2672531.0,
1717.0,1659.0,1961.0,1914.0,2672534.0,
1717.0,1657.0,1961.0,1911.0,2672538.0,
1717.0,1661.0,1958.0,1910.0,2672541.0,
1717.0,1659.0,1961.0,1909.0,2672545.0,
1717.0,1659.0,1961.0,1908.0,2672549.0,
1717.0,1658.0,1958.0,1905.0,2672552.0,
1718.0,1658.0,1957.0,1904.0,2672556.0,
1717.0,1658.0,1957.0,1902.0,2672560.0,
1717.0,1661.0,1956.0,1900.0,2672563.0,
1717.0,1665.0,1957.0,1899.0,2672567.0,
1717.0,1659.0,1953.0,1894.0,2672571.0,
1718.0,1659.0,1954.0,1899.0,2672574.0,
1717.0,1658.0,1953.0,1888.0,2672578.0,
1716.0,1659.0,1950.0,1888.0,2672581.0,
1716.0,1658.0,1950.0,1888.0,2672585.0,
1717.0,1659.0,1949.0,1887.0,2672589.0,
1717.0,1658.0,1948.0,1890.0,2672592.0,
1716.0,1658.0,1950.0,1892.0,2672596.0,
1717.0,1660.0,1947.0,1889.0,2672600.0,
1718.0,1662.0,1943.0,1892.0,2672603.0,
1718.0,1659.0,1945.0,1895.0,2672607.0,
1716.0,1659.0,1941.0,1900.0,2672610.0,
1717.0,1659.0,1940.0,1904.0,2672614.0,
1717.0,1658.0,1939.0,1910.0,2672618.0,
1718.0,1658.0,1935.0,1917.0,2672621.0,
1718.0,1659.0,1936.0,1923.0,2672625.0,
1718.0,1657.0,1933.0,1921.0,2672629.0,
1718.0,1656.0,1935.0,1935.0,2672632.0,
1718.0,1658.0,1935.0,1943.0,2672636.0,
1717.0,1659.0,1935.0,1953.0,2672640.0,
1717.0,1659.0,1936.0,1957.0,2672643.0,
1718.0,1660.0,1936.0,1967.0,2672647.0,
1719.0,1660.0,1933.0,1975.0,2672650.0,
1718.0,1659.0,1934.0,1981.0,2672654.0,
1718.0,1660.0,1935.0,1993.0,2672658.0,
1718.0,1660.0,1936.0,1999.0,2672661.0,
1717.0,1666.0,1936.0,2010.0,2672665.0,
1718.0,1660.0,1941.0,2022.0,2672669.0,
1718.0,1660.0,1944.0,2039.0,2672672.0,
1717.0,1665.0,1944.0,2051.0,2672676.0,
1716.0,1660.0,1953.0,2066.0,2672680.0,
1718.0,1661.0,1953.0,2082.0,2672683.0,
1718.0,1660.0,1959.0,2097.0,2672687.0,
1717.0,1661.0,1960.0,2111.0,2672690.0,
1718.0,1662.0,1965.0,2124.0,2672694.0,
1718.0,1660.0,1969.0,2142.0,2672698.0,
1719.0,1661.0,1975.0,2158.0,2672701.0,
1719.0,1661.0,1982.0,2170.0,2672705.0,
1719.0,1662.0,1988.0,2188.0,2672709.0,
1718.0,1659.0,1992.0,2204.0,2672712.0,
1718.0,1661.0,1999.0,2216.0,2672716.0,
1717.0,1660.0,2003.0,2230.0,2672719.0,
1719.0,1660.0,2008.0,2245.0,2672723.0,
1718.0,1661.0,2015.0,2259.0,2672727.0,
1718.0,1661.0,2020.0,2271.0,2672730.0,
1718.0,1661.0,2028.0,2281.0,2672734.0,
1717.0,1660.0,2034.0,2294.0,2672738.0,
1719.0,1661.0,2039.0,2303.0,2672741.0,
1719.0,1661.0,2046.0,2313.0,2672745.0,
1718.0,1660.0,2051.0,2317.0,2672749.0,
1718.0,1660.0,2058.0,2325.0,2672752.0,
1714.0,1660.0,2063.0,2330.0,2672756.0,
1718.0,1661.0,2064.0,2333.0,2672759.0,
1719.0,1661.0,2065.0,2341.0,2672763.0,
1720.0,1660.0,2071.0,2342.0,2672767.0,
1720.0,1661.0,2071.0,2346.0,2672770.0,
1719.0,1661.0,2073.0,2347.0,2672774.0,
1719.0,1661.0,2073.0,2350.0,2672778.0,
