EDA,Resp,PPG Finger,PPG Ear,arduino_ts,event_code
1029.0,1628.0,2059.0,2049.0,3968312.0,
1030.0,1630.0,2058.0,2045.0,3968316.0,
1024.0,1629.0,2058.0,2044.0,3968320.0,
1029.0,1627.0,2055.0,2042.0,3968323.0,
1030.0,1627.0,2056.0,2041.0,3968327.0,
1030.0,1628.0,2054.0,2039.0,3968330.0,
1028.0,1628.0,2049.0,2037.0,3968334.0,
1029.0,1628.0,2050.0,2037.0,3968338.0,
1030.0,1627.0,2048.0,2035.0,3968341.0,
1031.0,1628.0,2048.0,2035.0,3968345.0,
1030.0,1626.0,2050.0,2034.0,3968349.0,
1029.0,1627.0,2039.0,2034.0,3968352.0,
1029.0,1627.0,2040.0,2030.0,3968356.0,
1029.0,1627.0,2037.0,2032.0,3968360.0,
1030.0,1626.0,2034.0,2030.0,3968363.0,
1030.0,1625.0,2030.0,2028.0,3968367.0,
1030.0,1628.0,2030.0,2026.0,3968370.0,
1030.0,1626.0,2027.0,2027.0,3968374.0,
1026.0,1626.0,2023.0,2026.0,3968378.0,
1030.0,1625.0,2022.0,2025.0,3968381.0,
1029.0,1627.0,2018.0,2021.0,3968385.0,
1031.0,1625.0,2019.0,2027.0,3968389.0,
1030.0,1627.0,2017.0,2027.0,3968392.0,
1030.0,1626.0,2016.0,2028.0,3968396.0,
1035.0,1627.0,2015.0,2027.0,3968400.0,
1030.0,1623.0,2016.0,2024.0,3968403.0,
1030.0,1624.0,2015.0,2025.0,3968407.0,
1030.0,1621.0,2015.0,2024.0,3968410.0,
1031.0,1627.0,2013.0,2023.0,3968414.0,
1031.0,1624.0,2013.0,2024.0,3968418.0,
1030.0,1626.0,2014.0,2021.0,3968421.0,
1030.0,1625.0,2012.0,2021.0,3968425.0,
1031.0,1625.0,2010.0,2020.0,3968429.0,
1031.0,1628.0,2012.0,2016.0,3968432.0,
1030.0,1625.0,2010.0,2014.0,3968436.0,
1029.0,1625.0,2009.0,2010.0,3968439.0,
1028.0,1625.0,2008.0,2008.0,3968443.0,
1031.0,1624.0,2009.0,2006.0,3968447.0,
1031.0,1624.0,2007.0,2004.0,3968450.0,
1030.0,1624.0,2009.0,2004.0,3968454.0,
1029.0,1624.0,2006.0,2002.0,3968458.0,
1031.0,1623.0,2007.0,2001.0,3968461.0,
1030.0,1624.0,2007.0,2004.0,3968465.0,
1029.0,1623.0,2006.0,2005.0,3968469.0,
1030.0,1623.0,2005.0,2002.0,3968472.0,
1030.0,1624.0,2007.0,2002.0,3968476.0,
1029.0,1623.0,2005.0,2001.0,3968479.0,
1029.0,1622.0,2006.0,1998.0,3968483.0,
1030.0,1624.0,2005.0,1998.0,3968487.0,
1029.0,1623.0,2004.0,1996.0,3968490.0,
1030.0,1623.0,2003.0,1996.0,3968494.0,
1033.0,1622.0,2002.0,1995.0,3968498.0,
1030.0,1623.0,2003.0,1995.0,3968501.0,
1030.0,1623.0,2001.0,1993.0,3968505.0,
1029.0,1624.0,2001.0,1992.0,3968509.0,
1030.0,1622.0,1998.0,1993.0,3968512.0,
1030.0,1623.0,1998.0,1994.0,3968516.0,
1031.0,1622.0,1997.0,1996.0,3968519.0,
1029.0,1623.0,1998.0,1999.0,3968523.0,
1030.0,1620.0,1995.0,2002.0,3968527.0,
1028.0,1618.0,1999.0,2003.0,3968530.0,
1030.0,1620.0,1999.0,2004.0,3968534.0,
1029.0,1621.0,1998.0,2006.0,3968538.0,
1030.0,1621.0,1997.0,2007.0,3968541.0,
1030.0,1620.0,1999.0,2011.0,3968545.0,
1029.0,1621.0,1998.0,2014.0,3968549.0,
1030.0,1624.0,1998.0,2017.0,3968552.0,
1031.0,1622.0,1997.0,2021.0,3968556.0,
1030.0,1619.0,1997.0,2025.0,3968559.0,
1030.0,1622.0,1997.0,2029.0,3968563.0,
1032.0,1621.0,1999.0,2037.0,3968567.0,
1029.0,1619.0,1999.0,2043.0,3968570.0,
1031.0,1621.0,1999.0,2052.0,3968574.0,
1029.0,1620.0,2001.0,2059.0,3968578.0,
1028.0,1620.0,2002.0,2070.0,3968581.0,
1031.0,1620.0,2003.0,2076.0,3968585.0,
1030.0,1620.0,2003.0,2081.0,3968588.0,
1028.0,1620.0,2006.0,2090.0,3968592.0,
1031.0,1620.0,2011.0,2099.0,3968596.0,
1030.0,1621.0,2014.0,2109.0,3968599.0,
1030.0,1620.0,2019.0,2117.0,3968603.0,
1029.0,1621.0,2024.0,2128.0,3968607.0,
1031.0,1618.0,2027.0,2136.0,3968610.0,
1028.0,1621.0,2033.0,2146.0,3968614.0,
1030.0,1620.0,2039.0,2155.0,3968618.0,
1031.0,1620.0,2045.0,2164.0,3968621.0,
1030.0,1620.0,2051.0,2180.0,3968625.0,
1029.0,1619.0,2057.0,2193.0,3968628.0,
1030.0,1621.0,2060.0,2201.0,3968632.0,
1028.0,1620.0,2067.0,2213.0,3968636.0,
1031.0,1621.0,2074.0,2220.0,3968639.0,
1031.0,1619.0,2079.0,2232.0,3968643.0,
1037.0,1621.0,2088.0,2242.0,3968647.0,
1030.0,1621.0,2094.0,2247.0,3968650.0,
1025.0,1620.0,2100.0,2254.0,3968654.0,
1030.0,1619.0,2108.0,2263.0,3968658.0,
1030.0,1619.0,2114.0,2267.0,3968661.0,
1030.0,1621.0,2122.0,2274.0,3968665.0,
1030.0,1619.0,2128.0,2282.0,3968668.0,
1030.0,1622.0,2134.0,2289.0,3968672.0,
1029.0,1620.0,2143.0,2296.0,3968676.0,
1029.0,1622.0,2150.0,2302.0,3968679.0,
1030.0,1620.0,2157.0,2309.0,3968683.0,
1031.0,1620.0,2166.0,2315.0,3968687.0,
1030.0,1620.0,2171.0,2320.0,3968690.0,
1031.0,1621.0,2178.0,2322.0,3968694.0,
1031.0,1619.0,2187.0,2328.0,3968698.0,
1030.0,1619.0,2189.0,2332.0,3968701.0,
1030.0,1620.0,2196.0,2340.0,3968705.0,
1031.0,1619.0,2202.0,2342.0,3968708.0,
1030.0,1618.0,2208.0,2347.0,3968712.0,
1029.0,1620.0,2214.0,2343.0,3968716.0,
1030.0,1619.0,2216.0,2355.0,3968719.0,
1030.0,1619.0,2223.0,2360.0,3968723.0,
1027.0,1619.0,2226.0,2358.0,3968727.0,
1031.0,1619.0,2230.0,2362.0,3968730.0,
1033.0,1619.0,2231.0,2363.0,3968734.0,
1033.0,1620.0,2238.0,2363.0,3968738.0,
1031.0,1616.0,2240.0,2364.0,3968741.0,
1031.0,1619.0,2244.0,2367.0,3968745.0,
1031.0,1618.0,2247.0,2374.0,3968748.0,
1030.0,1618.0,2248.0,2368.0,3968752.0,
1030.0,1619.0,2251.0,2370.0,3968756.0,
1031.0,1621.0,2253.0,2367.0,3968759.0,
1029.0,1618.0,2251.0,2365.0,3968763.0,
1031.0,1619.0,2250.0,2364.0,3968767.0,
1030.0,1613.0,2253.0,2364.0,3968770.0,
1030.0,1619.0,2250.0,2360.0,3968774.0,
1030.0,1620.0,2251.0,2358.0,3968777.0,
1030.0,1617.0,2248.0,2352.0,3968781.0,
1031.0,1625.0,2246.0,2345.0,3968785.0,
1032.0,1618.0,2242.0,2341.0,3968788.0,
1030.0,1617.0,2241.0,2336.0,3968792.0,
1031.0,1620.0,2239.0,2327.0,3968796.0,
1031.0,1619.0,2238.0,2320.0,3968799.0,
1033.0,1617.0,2232.0,2313.0,3968803.0,
1031.0,1620.0,2231.0,2303.0,3968807.0,
1030.0,1619.0,2228.0,2291.0,3968810.0,
1030.0,1619.0,2226.0,2285.0,3968814.0,
1030.0,1620.0,2221.0,2277.0,3968817.0,
1030.0,1618.0,2216.0,2267.0,3968821.0,
1032.0,1616.0,2213.0,2262.0,3968825.0,
1032.0,1618.0,2209.0,2246.0,3968828.0,
1030.0,1616.0,2207.0,2250.0,3968832.0,
1030.0,1621.0,2201.0,2242.0,3968836.0,
1031.0,1618.0,2196.0,2234.0,3968839.0,
1030.0,1619.0,2191.0,2230.0,3968843.0,
1030.0,1618.0,2182.0,2222.0,3968847.0,
1030.0,1617.0,2178.0,2218.0,3968850.0,
1028.0,1618.0,2172.0,2211.0,3968854.0,
1030.0,1617.0,2167.0,2206.0,3968857.0,
1031.0,1617.0,2166.0,2199.0,3968861.0,
1031.0,1618.0,2162.0,2196.0,3968865.0,
1028.0,1616.0,2158.0,2190.0,3968868.0,
1029.0,1616.0,2149.0,2180.0,3968872.0,
1030.0,1618.0,2148.0,2171.0,3968876.0,
1030.0,1618.0,2147.0,2165.0,3968879.0,
1032.0,1616.0,2145.0,2158.0,3968883.0,
1030.0,1617.0,2142.0,2153.0,3968887.0,
1030.0,1614.0,2139.0,2146.0,3968890.0,
1031.0,1618.0,2138.0,2143.0,3968894.0,
1031.0,1614.0,2138.0,2140.0,3968897.0,
1031.0,1620.0,2131.0,2137.0,3968901.0,
1031.0,1615.0,2133.0,2137.0,3968905.0,
1030.0,1615.0,2131.0,2138.0,3968908.0,
1031.0,1616.0,2130.0,2139.0,3968912.0,
1030.0,1615.0,2128.0,2140.0,3968916.0,
1031.0,1616.0,2128.0,2143.0,3968919.0,
1031.0,1619.0,2128.0,2143.0,3968923.0,
1030.0,1620.0,2122.0,2145.0,3968926.0,
1030.0,1615.0,2123.0,2147.0,3968930.0,
1030.0,1617.0,2119.0,2146.0,3968934.0,
1025.0,1618.0,2118.0,2147.0,3968937.0,
1030.0,1613.0,2118.0,2142.0,3968941.0,
1029.0,1616.0,2116.0,2151.0,3968945.0,
1029.0,1616.0,2117.0,2148.0,3968948.0,
1032.0,1615.0,2113.0,2143.0,3968952.0,
1031.0,1618.0,2111.0,2136.0,3968956.0,
1032.0,1617.0,2111.0,2137.0,3968959.0,
1031.0,1615.0,2111.0,2138.0,3968963.0,
1032.0,1616.0,2109.0,2131.0,3968966.0,
1030.0,1616.0,2108.0,2131.0,3968970.0,
1032.0,1616.0,2113.0,2126.0,3968974.0,
1031.0,1617.0,2104.0,2123.0,3968977.0,
1033.0,1615.0,2105.0,2121.0,3968981.0,
1030.0,1616.0,2101.0,2116.0,3968985.0,
1031.0,1617.0,2103.0,2111.0,3968988.0,
1032.0,1616.0,2099.0,2110.0,3968992.0,
1030.0,1616.0,2100.0,2107.0,3968996.0,
1030.0,1615.0,2098.0,2105.0,3968999.0,
1030.0,1615.0,2099.0,2101.0,3969003.0,
1031.0,1615.0,2097.0,2102.0,3969006.0,
1031.0,1616.0,2099.0,2102.0,3969010.0,
1033.0,1617.0,2103.0,2103.0,3969014.0,
1031.0,1615.0,2099.0,2103.0,3969017.0,
1031.0,1614.0,2097.0,2102.0,3969021.0,
1030.0,1613.0,2095.0,2101.0,3969025.0,
1031.0,1615.0,2095.0,2098.0,3969028.0,
1031.0,1615.0,2094.0,2095.0,3969032.0,
1030.0,1615.0,2090.0,2092.0,3969036.0,
1030.0,1614.0,2090.0,2088.0,3969039.0,
1032.0,1612.0,2088.0,2091.0,3969043.0,
1030.0,1614.0,2086.0,2086.0,3969046.0,
1030.0,1615.0,2084.0,2087.0,3969050.0,
1031.0,1614.0,2083.0,2083.0,3969054.0,
1030.0,1615.0,2084.0,2082.0,3969057.0,
1030.0,1614.0,2086.0,2079.0,3969061.0,
1033.0,1616.0,2082.0,2076.0,3969065.0,
1031.0,1609.0,2078.0,2075.0,3969068.0,
1031.0,1615.0,2077.0,2075.0,3969072.0,
1029.0,1617.0,2074.0,2071.0,3969075.0,
1030.0,1614.0,2071.0,2067.0,3969079.0,
1030.0,1613.0,2072.0,2065.0,3969083.0,
1029.0,1614.0,2068.0,2063.0,3969086.0,
1030.0,1614.0,2068.0,2064.0,3969090.0,
1030.0,1616.0,2067.0,2056.0,3969094.0,
1029.0,1615.0,2065.0,2050.0,3969097.0,
1030.0,1615.0,2061.0,2045.0,3969101.0,
1031.0,1615.0,2061.0,2042.0,3969105.0,
1031.0,1618.0,2058.0,2041.0,3969108.0,
1028.0,1615.0,2048.0,2035.0,3969112.0,
1030.0,1618.0,2052.0,2033.0,3969115.0,
1030.0,1615.0,2051.0,2024.0,3969119.0,
1029.0,1612.0,2049.0,2023.0,3969123.0,
1031.0,1614.0,2049.0,2023.0,3969126.0,
1036.0,1615.0,2044.0,2013.0,3969130.0,
1030.0,1612.0,2045.0,2010.0,3969134.0,
1025.0,1615.0,2041.0,2009.0,3969137.0,
1026.0,1615.0,2039.0,2007.0,3969141.0,
1030.0,1614.0,2040.0,2006.0,3969145.0,
1031.0,1616.0,2038.0,2004.0,3969148.0,
1029.0,1615.0,2034.0,2003.0,3969152.0,
1031.0,1613.0,2037.0,2001.0,3969155.0,
1031.0,1614.0,2031.0,2000.0,3969159.0,
1033.0,1613.0,2029.0,2000.0,3969163.0,
1030.0,1613.0,2029.0,1999.0,3969166.0,
1030.0,1613.0,2029.0,1998.0,3969170.0,
1029.0,1612.0,2026.0,1996.0,3969174.0,
1029.0,1613.0,2025.0,1997.0,3969177.0,
1029.0,1611.0,2025.0,1994.0,3969181.0,
1031.0,1613.0,2024.0,1994.0,3969185.0,
1030.0,1613.0,2022.0,1997.0,3969188.0,
1030.0,1614.0,2020.0,1998.0,3969192.0,
1029.0,1614.0,2022.0,1999.0,3969195.0,
1030.0,1613.0,2020.0,1999.0,3969199.0,
1030.0,1612.0,2020.0,1999.0,3969203.0,
1030.0,1609.0,2020.0,1999.0,3969206.0,
1030.0,1614.0,2020.0,2000.0,3969210.0,
1031.0,1614.0,2015.0,2003.0,3969214.0,
1031.0,1612.0,2014.0,2003.0,3969217.0,
1030.0,1613.0,2014.0,1997.0,3969221.0,
1031.0,1613.0,2012.0,2005.0,3969224.0,
1028.0,1613.0,2010.0,1996.0,3969228.0,
1030.0,1612.0,2009.0,1999.0,3969232.0,
1031.0,1615.0,2008.0,1996.0,3969235.0,
1030.0,1613.0,2006.0,1994.0,3969239.0,
1029.0,1612.0,2001.0,1989.0,3969243.0,
1031.0,1614.0,1999.0,1990.0,3969246.0,
1024.0,1614.0,1998.0,1986.0,3969250.0,
1030.0,1613.0,1994.0,1984.0,3969254.0,
1029.0,1613.0,1993.0,1979.0,3969257.0,
1030.0,1613.0,1992.0,1977.0,3969261.0,
1030.0,1614.0,1989.0,1974.0,3969264.0,
1031.0,1614.0,1988.0,1973.0,3969268.0,
1031.0,1613.0,1992.0,1971.0,3969272.0,
1029.0,1612.0,1989.0,1968.0,3969275.0,
1030.0,1610.0,1988.0,1969.0,3969279.0,
1030.0,1612.0,1988.0,1966.0,3969283.0,
1031.0,1619.0,1988.0,1966.0,3969286.0,
1029.0,1614.0,1987.0,1967.0,3969290.0,
1030.0,1614.0,1989.0,1968.0,3969294.0,
1031.0,1614.0,1988.0,1967.0,3969297.0,
1031.0,1613.0,1989.0,1975.0,3969301.0,
1030.0,1612.0,1990.0,1972.0,3969304.0,
1029.0,1612.0,1992.0,1977.0,3969308.0,
1032.0,1612.0,1992.0,1984.0,3969312.0,
1031.0,1613.0,1992.0,1991.0,3969315.0,
1030.0,1613.0,1994.0,1997.0,3969319.0,
1033.0,1613.0,1995.0,2008.0,3969323.0,
1028.0,1612.0,1997.0,2015.0,3969326.0,
1029.0,1612.0,1998.0,2022.0,3969330.0,
1028.0,1613.0,1995.0,2036.0,3969334.0,
1031.0,1613.0,2002.0,2045.0,3969337.0,
1031.0,1612.0,2001.0,2057.0,3969341.0,
1030.0,1611.0,2006.0,2069.0,3969344.0,
1030.0,1612.0,2006.0,2080.0,3969348.0,
1029.0,1613.0,2009.0,2093.0,3969352.0,
1031.0,1614.0,2013.0,2099.0,3969355.0,
1031.0,1613.0,2014.0,2107.0,3969359.0,
1030.0,1613.0,2018.0,2120.0,3969363.0,
1030.0,1618.0,2022.0,2127.0,3969366.0,
1030.0,1612.0,2027.0,2137.0,3969370.0,
1030.0,1612.0,2025.0,2148.0,3969374.0,
1030.0,1612.0,2037.0,2160.0,3969377.0,
1031.0,1614.0,2040.0,2173.0,3969381.0,
1030.0,1613.0,2045.0,2183.0,3969384.0,
1032.0,1613.0,2055.0,2193.0,3969388.0,
1031.0,1611.0,2059.0,2205.0,3969392.0,
1030.0,1611.0,2066.0,2214.0,3969395.0,
1031.0,1610.0,2073.0,2225.0,3969399.0,
1030.0,1613.0,2081.0,2230.0,3969403.0,
1030.0,1611.0,2091.0,2244.0,3969406.0,
1031.0,1612.0,2097.0,2252.0,3969410.0,
1030.0,1613.0,2105.0,2261.0,3969413.0,
1030.0,1612.0,2116.0,2266.0,3969417.0,
1030.0,1612.0,2125.0,2275.0,3969421.0,
1032.0,1612.0,2132.0,2285.0,3969424.0,
1032.0,1611.0,2141.0,2286.0,3969428.0,
1029.0,1613.0,2150.0,2295.0,3969432.0,
1030.0,1612.0,2157.0,2299.0,3969435.0,
1031.0,1611.0,2165.0,2304.0,3969439.0,
1031.0,1613.0,2173.0,2311.0,3969443.0,
1030.0,1612.0,2184.0,2312.0,3969446.0,
1031.0,1612.0,2192.0,2316.0,3969450.0,
1031.0,1611.0,2202.0,2318.0,3969453.0,
1033.0,1614.0,2207.0,2324.0,3969457.0,
1031.0,1611.0,2214.0,2320.0,3969461.0,
1031.0,1616.0,2222.0,2320.0,3969464.0,
1030.0,1611.0,2226.0,2321.0,3969468.0,
1030.0,1612.0,2231.0,2319.0,3969472.0,
1029.0,1611.0,2234.0,2322.0,3969475.0,
1032.0,1613.0,2239.0,2323.0,3969479.0,
1029.0,1611.0,2244.0,2325.0,3969483.0,
1031.0,1612.0,2247.0,2330.0,3969486.0,
1031.0,1612.0,2251.0,2333.0,3969490.0,
1030.0,1611.0,2254.0,2339.0,3969493.0,
1031.0,1613.0,2258.0,2339.0,3969497.0,
1030.0,1612.0,2260.0,2343.0,3969501.0,
1030.0,1612.0,2263.0,2345.0,3969504.0,
1031.0,1614.0,2266.0,2343.0,3969508.0,
1030.0,1612.0,2268.0,2343.0,3969512.0,
1025.0,1612.0,2271.0,2340.0,3969515.0,
1031.0,1613.0,2273.0,2337.0,3969519.0,
1030.0,1612.0,2272.0,2333.0,3969523.0,
1030.0,1613.0,2276.0,2329.0,3969526.0,
1024.0,1612.0,2277.0,2326.0,3969530.0,
1031.0,1613.0,2278.0,2322.0,3969533.0,
1031.0,1614.0,2280.0,2320.0,3969537.0,
1030.0,1615.0,2279.0,2317.0,3969541.0,
1031.0,1612.0,2279.0,2313.0,3969544.0,
1031.0,1613.0,2279.0,2309.0,3969548.0,
1031.0,1612.0,2277.0,2302.0,3969552.0,
1033.0,1611.0,2270.0,2296.0,3969555.0,
1030.0,1613.0,2269.0,2294.0,3969559.0,
1031.0,1612.0,2264.0,2285.0,3969562.0,
1030.0,1612.0,2262.0,2280.0,3969566.0,
1031.0,1612.0,2255.0,2276.0,3969570.0,
1030.0,1614.0,2252.0,2271.0,3969573.0,
1030.0,1614.0,2249.0,2268.0,3969577.0,
1030.0,1612.0,2243.0,2264.0,3969581.0,
1030.0,1613.0,2237.0,2260.0,3969584.0,
1032.0,1614.0,2232.0,2254.0,3969588.0,
1031.0,1613.0,2227.0,2251.0,3969592.0,
1031.0,1613.0,2219.0,2245.0,3969595.0,
1032.0,1613.0,2214.0,2243.0,3969599.0,
1031.0,1613.0,2207.0,2235.0,3969602.0,
1032.0,1614.0,2204.0,2231.0,3969606.0,
1030.0,1614.0,2199.0,2223.0,3969610.0,
1029.0,1615.0,2192.0,2218.0,3969613.0,
1031.0,1611.0,2187.0,2208.0,3969617.0,
1031.0,1614.0,2178.0,2203.0,3969621.0,
1030.0,1615.0,2174.0,2195.0,3969624.0,
1027.0,1613.0,2167.0,2188.0,3969628.0,
1030.0,1614.0,2162.0,2182.0,3969632.0,
1032.0,1616.0,2156.0,2176.0,3969635.0,
1030.0,1614.0,2151.0,2173.0,3969639.0,
1031.0,1614.0,2146.0,2170.0,3969642.0,
1030.0,1614.0,2140.0,2165.0,3969646.0,
1029.0,1614.0,2138.0,2162.0,3969650.0,
1031.0,1616.0,2132.0,2155.0,3969653.0,
1032.0,1613.0,2123.0,2150.0,3969657.0,
1030.0,1614.0,2128.0,2145.0,3969661.0,
1031.0,1612.0,2124.0,2144.0,3969664.0,
1030.0,1614.0,2123.0,2140.0,3969668.0,
1031.0,1614.0,2123.0,2131.0,3969672.0,
1030.0,1613.0,2120.0,2132.0,3969675.0,
1029.0,1614.0,2120.0,2130.0,3969679.0,
1030.0,1613.0,2122.0,2127.0,3969682.0,
1031.0,1614.0,2122.0,2124.0,3969686.0,
1030.0,1613.0,2123.0,2122.0,3969690.0,
1031.0,1614.0,2120.0,2119.0,3969693.0,
1031.0,1615.0,2122.0,2118.0,3969697.0,
1031.0,1614.0,2119.0,2110.0,3969701.0,
1030.0,1614.0,2119.0,2107.0,3969704.0,
1031.0,1613.0,2121.0,2103.0,3969708.0,
1033.0,1615.0,2126.0,2099.0,3969711.0,
1030.0,1617.0,2126.0,2096.0,3969715.0,
1031.0,1615.0,2127.0,2090.0,3969719.0,
1030.0,1616.0,2129.0,2084.0,3969722.0,
1031.0,1615.0,2131.0,2081.0,3969726.0,
1031.0,1614.0,2131.0,2076.0,3969730.0,
1032.0,1616.0,2134.0,2072.0,3969733.0,
1031.0,1616.0,2133.0,2073.0,3969737.0,
1031.0,1614.0,2132.0,2068.0,3969741.0,
1030.0,1615.0,2131.0,2071.0,3969744.0,
1025.0,1617.0,2131.0,2070.0,3969748.0,
1031.0,1618.0,2129.0,2070.0,3969751.0,
1030.0,1614.0,2126.0,2070.0,3969755.0,
1030.0,1616.0,2123.0,2066.0,3969759.0,
1030.0,1615.0,2124.0,2067.0,3969762.0,
1030.0,1620.0,2119.0,2063.0,3969766.0,
1030.0,1613.0,2117.0,2063.0,3969770.0,
1031.0,1618.0,2115.0,2060.0,3969773.0,
1030.0,1618.0,2112.0,2059.0,3969777.0,
1030.0,1616.0,2110.0,2052.0,3969781.0,
1031.0,1618.0,2105.0,2049.0,3969784.0,
1030.0,1617.0,2101.0,2041.0,3969788.0,
1031.0,1619.0,2099.0,2039.0,3969791.0,
1029.0,1618.0,2090.0,2032.0,3969795.0,
1031.0,1617.0,2097.0,2031.0,3969799.0,
1031.0,1617.0,2091.0,2031.0,3969802.0,
1034.0,1618.0,2088.0,2031.0,3969806.0,
1030.0,1618.0,2087.0,2027.0,3969810.0,
1030.0,1619.0,2084.0,2026.0,3969813.0,
1031.0,1620.0,2082.0,2026.0,3969817.0,
1031.0,1617.0,2078.0,2022.0,3969821.0,
1030.0,1618.0,2075.0,2019.0,3969824.0,
1030.0,1617.0,2071.0,2016.0,3969828.0,
1031.0,1618.0,2068.0,2014.0,3969831.0,
1029.0,1619.0,2067.0,2012.0,3969835.0,
1030.0,1620.0,2067.0,2009.0,3969839.0,
1030.0,1620.0,2066.0,2008.0,3969842.0,
1031.0,1621.0,2064.0,2006.0,3969846.0,
1029.0,1619.0,2061.0,2004.0,3969850.0,
1031.0,1621.0,2058.0,2002.0,3969853.0,
1031.0,1620.0,2059.0,2001.0,3969857.0,
1031.0,1620.0,2057.0,1997.0,3969860.0,
1030.0,1620.0,2054.0,1994.0,3969864.0,
1031.0,1618.0,2052.0,1997.0,3969868.0,
1030.0,1618.0,2054.0,1995.0,3969871.0,
1031.0,1619.0,2052.0,1997.0,3969875.0,
1030.0,1620.0,2052.0,1994.0,3969879.0,
1030.0,1618.0,2049.0,1994.0,3969882.0,
1031.0,1621.0,2050.0,1992.0,3969886.0,
1030.0,1621.0,2046.0,1991.0,3969890.0,
1031.0,1622.0,2045.0,1988.0,3969893.0,
1031.0,1620.0,2044.0,1987.0,3969897.0,
1032.0,1620.0,2041.0,1983.0,3969900.0,
1030.0,1620.0,2044.0,1982.0,3969904.0,
1030.0,1622.0,2038.0,1979.0,3969908.0,
1031.0,1618.0,2038.0,1980.0,3969911.0,
1029.0,1625.0,2036.0,1974.0,3969915.0,
1031.0,1622.0,2034.0,1973.0,3969919.0,
1031.0,1622.0,2034.0,1971.0,3969922.0,
1031.0,1622.0,2035.0,1971.0,3969926.0,
1031.0,1619.0,2032.0,1967.0,3969930.0,
1030.0,1622.0,2031.0,1964.0,3969933.0,
1030.0,1622.0,2033.0,1961.0,3969937.0,
1030.0,1627.0,2031.0,1961.0,3969940.0,
1032.0,1622.0,2028.0,1959.0,3969944.0,
1030.0,1622.0,2029.0,1958.0,3969948.0,
1032.0,1624.0,2029.0,1955.0,3969951.0,
1031.0,1626.0,2028.0,1953.0,3969955.0,
1030.0,1623.0,2028.0,1951.0,3969959.0,
1031.0,1623.0,2025.0,1950.0,3969962.0,
1030.0,1625.0,2024.0,1949.0,3969966.0,
1027.0,1624.0,2022.0,1952.0,3969970.0,
1029.0,1624.0,2020.0,1950.0,3969973.0,
1031.0,1621.0,2019.0,1946.0,3969977.0,
1029.0,1623.0,2018.0,1945.0,3969980.0,
1031.0,1623.0,2018.0,1942.0,3969984.0,
1030.0,1623.0,2016.0,1937.0,3969988.0,
1031.0,1623.0,2018.0,1940.0,3969991.0,
1032.0,1622.0,2013.0,1937.0,3969995.0,
1031.0,1623.0,2015.0,1931.0,3969999.0,
1031.0,1622.0,2012.0,1928.0,3970002.0,
1030.0,1623.0,2010.0,1924.0,3970006.0,
1030.0,1623.0,2010.0,1923.0,3970009.0,
1030.0,1625.0,2007.0,1922.0,3970013.0,
1030.0,1622.0,2007.0,1920.0,3970017.0,
1031.0,1627.0,2006.0,1920.0,3970020.0,
1031.0,1624.0,2005.0,1916.0,3970024.0,
1031.0,1623.0,2003.0,1917.0,3970028.0,
1030.0,1622.0,2005.0,1918.0,3970031.0,
1030.0,1623.0,2006.0,1918.0,3970035.0,
1031.0,1623.0,2002.0,1913.0,3970039.0,
1029.0,1625.0,2000.0,1919.0,3970042.0,
1031.0,1624.0,2002.0,1917.0,3970046.0,
1029.0,1625.0,2000.0,1916.0,3970049.0,
1031.0,1624.0,1998.0,1917.0,3970053.0,
1030.0,1625.0,1998.0,1920.0,3970057.0,
1031.0,1623.0,1996.0,1928.0,3970060.0,
1031.0,1627.0,1995.0,1926.0,3970064.0,
1031.0,1624.0,1995.0,1928.0,3970068.0,
1031.0,1625.0,1993.0,1934.0,3970071.0,
1030.0,1625.0,1987.0,1940.0,3970075.0,
1030.0,1625.0,1988.0,1943.0,3970079.0,
1031.0,1625.0,1989.0,1951.0,3970082.0,
1031.0,1626.0,1985.0,1959.0,3970086.0,
1031.0,1625.0,1990.0,1963.0,3970089.0,
1027.0,1625.0,1984.0,1974.0,3970093.0,
1030.0,1626.0,1985.0,1981.0,3970097.0,
1031.0,1627.0,1985.0,1991.0,3970100.0,
1030.0,1625.0,1986.0,1998.0,3970104.0,
1029.0,1626.0,1989.0,2005.0,3970108.0,
1030.0,1626.0,1990.0,2018.0,3970111.0,
1031.0,1625.0,1989.0,2027.0,3970115.0,
1033.0,1624.0,1993.0,2037.0,3970119.0,
1031.0,1625.0,1996.0,2046.0,3970122.0,
1030.0,1625.0,1995.0,2055.0,3970126.0,
1031.0,1625.0,1999.0,2067.0,3970129.0,
1030.0,1624.0,2002.0,2076.0,3970133.0,
1026.0,1625.0,2006.0,2081.0,3970137.0,
1030.0,1625.0,2012.0,2092.0,3970140.0,
1030.0,1625.0,2018.0,2099.0,3970144.0,
1028.0,1625.0,2022.0,2109.0,3970148.0,
1032.0,1623.0,2029.0,2117.0,3970151.0,
1030.0,1626.0,2039.0,2121.0,3970155.0,
1034.0,1625.0,2044.0,2129.0,3970158.0,
1031.0,1623.0,2054.0,2140.0,3970162.0,
1036.0,1624.0,2061.0,2148.0,3970166.0,
1029.0,1627.0,2069.0,2156.0,3970169.0,
1031.0,1623.0,2080.0,2163.0,3970173.0,
1030.0,1625.0,2090.0,2175.0,3970177.0,
1030.0,1623.0,2100.0,2181.0,3970180.0,
1032.0,1623.0,2110.0,2193.0,3970184.0,
1030.0,1624.0,2122.0,2202.0,3970188.0,
1030.0,1622.0,2133.0,2209.0,3970191.0,
1030.0,1623.0,2141.0,2213.0,3970195.0,
1030.0,1622.0,2150.0,2220.0,3970198.0,
1031.0,1622.0,2160.0,2229.0,3970202.0,
1031.0,1620.0,2169.0,2238.0,3970206.0,
1031.0,1621.0,2177.0,2245.0,3970209.0,
1030.0,1622.0,2186.0,2252.0,3970213.0,
1033.0,1622.0,2189.0,2258.0,3970217.0,
1030.0,1623.0,2199.0,2267.0,3970220.0,
1031.0,1621.0,2203.0,2269.0,3970224.0,
1031.0,1622.0,2209.0,2274.0,3970228.0,
1030.0,1621.0,2216.0,2277.0,3970231.0,
1031.0,1620.0,2219.0,2278.0,3970235.0,
1032.0,1623.0,2227.0,2278.0,3970238.0,
1031.0,1620.0,2226.0,2277.0,3970242.0,
1032.0,1621.0,2232.0,2277.0,3970246.0,
1031.0,1623.0,2240.0,2280.0,3970249.0,
1031.0,1624.0,2246.0,2280.0,3970253.0,
1031.0,1622.0,2247.0,2281.0,3970257.0,
1031.0,1621.0,2253.0,2278.0,3970260.0,
1030.0,1619.0,2257.0,2281.0,3970264.0,
1033.0,1620.0,2259.0,2275.0,3970268.0,
1030.0,1621.0,2263.0,2272.0,3970271.0,
1031.0,1620.0,2263.0,2270.0,3970275.0,
1030.0,1620.0,2264.0,2263.0,3970278.0,
1031.0,1625.0,2261.0,2261.0,3970282.0,
1030.0,1620.0,2263.0,2256.0,3970286.0,
1030.0,1621.0,2261.0,2253.0,3970289.0,
1031.0,1620.0,2261.0,2250.0,3970293.0,
1030.0,1619.0,2260.0,2243.0,3970297.0,
1032.0,1620.0,2257.0,2240.0,3970300.0,
1032.0,1619.0,2256.0,2235.0,3970304.0,
1031.0,1619.0,2256.0,2229.0,3970307.0,
1031.0,1619.0,2254.0,2222.0,3970311.0,
1031.0,1619.0,2251.0,2217.0,3970315.0,
1026.0,1620.0,2250.0,2211.0,3970318.0,
1030.0,1618.0,2248.0,2203.0,3970322.0,
1031.0,1619.0,2249.0,2197.0,3970326.0,
1031.0,1619.0,2247.0,2189.0,3970329.0,
1032.0,1618.0,2245.0,2184.0,3970333.0,
1030.0,1617.0,2242.0,2179.0,3970337.0,
1030.0,1618.0,2243.0,2174.0,3970340.0,
1031.0,1619.0,2239.0,2171.0,3970344.0,
1031.0,1617.0,2238.0,2166.0,3970347.0,
1032.0,1619.0,2234.0,2164.0,3970351.0,
1029.0,1615.0,2231.0,2159.0,3970355.0,
1031.0,1619.0,2229.0,2157.0,3970358.0,
1030.0,1618.0,2226.0,2156.0,3970362.0,
1030.0,1617.0,2221.0,2152.0,3970366.0,
1031.0,1618.0,2218.0,2150.0,3970369.0,
1031.0,1618.0,2213.0,2146.0,3970373.0,
1031.0,1618.0,2212.0,2147.0,3970377.0,
1031.0,1617.0,2208.0,2144.0,3970380.0,
1030.0,1617.0,2203.0,2133.0,3970384.0,
1031.0,1616.0,2197.0,2136.0,3970387.0,
1032.0,1618.0,2192.0,2132.0,3970391.0,
1030.0,1617.0,2187.0,2127.0,3970395.0,
1031.0,1618.0,2183.0,2126.0,3970398.0,
1030.0,1617.0,2178.0,2120.0,3970402.0,
1031.0,1616.0,2173.0,2118.0,3970406.0,
1031.0,1616.0,2170.0,2117.0,3970409.0,
1033.0,1618.0,2168.0,2113.0,3970413.0,
1032.0,1616.0,2164.0,2108.0,3970417.0,
1030.0,1617.0,2162.0,2109.0,3970420.0,
1030.0,1616.0,2160.0,2104.0,3970424.0,
1031.0,1617.0,2156.0,2102.0,3970427.0,
1030.0,1616.0,2158.0,2095.0,3970431.0,
1030.0,1616.0,2152.0,2085.0,3970435.0,
1031.0,1616.0,2150.0,2087.0,3970438.0,
1031.0,1616.0,2146.0,2084.0,3970442.0,
1032.0,1616.0,2145.0,2075.0,3970446.0,
1030.0,1619.0,2136.0,2074.0,3970449.0,
1031.0,1616.0,2135.0,2069.0,3970453.0,
1030.0,1617.0,2131.0,2067.0,3970457.0,
1029.0,1614.0,2128.0,2065.0,3970460.0,
1031.0,1615.0,2125.0,2060.0,3970464.0,
1031.0,1616.0,2123.0,2055.0,3970467.0,
1031.0,1615.0,2122.0,2052.0,3970471.0,
1031.0,1617.0,2120.0,2048.0,3970475.0,
1030.0,1619.0,2121.0,2044.0,3970478.0,
1030.0,1615.0,2121.0,2042.0,3970482.0,
1029.0,1613.0,2120.0,2033.0,3970486.0,
1030.0,1616.0,2121.0,2032.0,3970489.0,
1030.0,1614.0,2120.0,2027.0,3970493.0,
1029.0,1614.0,2121.0,2026.0,3970496.0,
1030.0,1617.0,2118.0,2026.0,3970500.0,
1030.0,1614.0,2117.0,2023.0,3970504.0,
1030.0,1615.0,2118.0,2023.0,3970507.0,
1029.0,1615.0,2115.0,2022.0,3970511.0,
1031.0,1615.0,2113.0,2022.0,3970515.0,
1031.0,1615.0,2117.0,2019.0,3970518.0,
1030.0,1615.0,2109.0,2020.0,3970522.0,
1031.0,1614.0,2107.0,2020.0,3970526.0,
1030.0,1614.0,2104.0,2017.0,3970529.0,
1030.0,1613.0,2100.0,2012.0,3970533.0,
1029.0,1614.0,2100.0,2008.0,3970536.0,
1030.0,1615.0,2098.0,2004.0,3970540.0,
1030.0,1614.0,2096.0,2002.0,3970544.0,
1029.0,1614.0,2092.0,2000.0,3970547.0,
1032.0,1613.0,2091.0,2000.0,3970551.0,
1030.0,1615.0,2089.0,1987.0,3970555.0,
1030.0,1614.0,2089.0,1992.0,3970558.0,
1030.0,1614.0,2087.0,1987.0,3970562.0,
1029.0,1614.0,2084.0,1981.0,3970566.0,
1030.0,1615.0,2083.0,1978.0,3970569.0,
1029.0,1615.0,2083.0,1975.0,3970573.0,
1031.0,1612.0,2079.0,1974.0,3970576.0,
1029.0,1615.0,2075.0,1972.0,3970580.0,
1029.0,1614.0,2072.0,1970.0,3970584.0,
1032.0,1614.0,2071.0,1971.0,3970587.0,
1029.0,1615.0,2068.0,1971.0,3970591.0,
1029.0,1614.0,2066.0,1967.0,3970595.0,
1029.0,1615.0,2063.0,1965.0,3970598.0,
1032.0,1613.0,2061.0,1963.0,3970602.0,
1032.0,1613.0,2060.0,1961.0,3970606.0,
1030.0,1617.0,2057.0,1961.0,3970609.0,
1034.0,1617.0,2054.0,1957.0,3970613.0,
1030.0,1615.0,2053.0,1956.0,3970616.0,
1030.0,1615.0,2051.0,1954.0,3970620.0,
1031.0,1614.0,2051.0,1955.0,3970624.0,
1029.0,1615.0,2048.0,1952.0,3970627.0,
1030.0,1615.0,2048.0,1951.0,3970631.0,
1030.0,1617.0,2045.0,1949.0,3970635.0,
1029.0,1616.0,2044.0,1945.0,3970638.0,
1030.0,1620.0,2043.0,1942.0,3970642.0,
1032.0,1616.0,2043.0,1939.0,3970645.0,
1030.0,1617.0,2041.0,1937.0,3970649.0,
1031.0,1616.0,2038.0,1936.0,3970653.0,
1029.0,1613.0,2038.0,1937.0,3970656.0,
1030.0,1615.0,2037.0,1933.0,3970660.0,
1029.0,1615.0,2036.0,1934.0,3970664.0,
1029.0,1615.0,2035.0,1932.0,3970667.0,
1030.0,1615.0,2034.0,1932.0,3970671.0,
1030.0,1614.0,2032.0,1927.0,3970675.0,
1030.0,1613.0,2030.0,1930.0,3970678.0,
1030.0,1615.0,2031.0,1929.0,3970682.0,
1029.0,1617.0,2031.0,1928.0,3970685.0,
1030.0,1618.0,2029.0,1929.0,3970689.0,
1029.0,1617.0,2028.0,1933.0,3970693.0,
1031.0,1615.0,2030.0,1933.0,3970696.0,
1029.0,1616.0,2030.0,1937.0,3970700.0,
1032.0,1616.0,2029.0,1939.0,3970704.0,
1030.0,1614.0,2026.0,1942.0,3970707.0,
1030.0,1616.0,2023.0,1944.0,3970711.0,
1030.0,1615.0,2020.0,1944.0,3970715.0,
1029.0,1615.0,2018.0,1949.0,3970718.0,
1033.0,1615.0,2019.0,1949.0,3970722.0,
1028.0,1614.0,2011.0,1946.0,3970725.0,
1030.0,1614.0,2010.0,1946.0,3970729.0,
1029.0,1615.0,2011.0,1943.0,3970733.0,
1029.0,1617.0,2010.0,1944.0,3970736.0,
1029.0,1615.0,2010.0,1944.0,3970740.0,
1030.0,1615.0,2009.0,1943.0,3970744.0,
1030.0,1615.0,2008.0,1944.0,3970747.0,
1031.0,1614.0,2008.0,1941.0,3970751.0,
1027.0,1615.0,2006.0,1938.0,3970755.0,
1029.0,1614.0,2007.0,1939.0,3970758.0,
1029.0,1616.0,2006.0,1940.0,3970762.0,
1028.0,1615.0,2005.0,1927.0,3970765.0,
1023.0,1615.0,2004.0,1931.0,3970769.0,
1029.0,1617.0,2005.0,1931.0,3970773.0,
1031.0,1615.0,2007.0,1928.0,3970776.0,
1029.0,1616.0,2001.0,1929.0,3970780.0,
1030.0,1614.0,2002.0,1928.0,3970784.0,
1030.0,1612.0,2002.0,1926.0,3970787.0,
1030.0,1611.0,2000.0,1925.0,3970791.0,
1031.0,1613.0,1998.0,1925.0,3970794.0,
1031.0,1614.0,1997.0,1921.0,3970798.0,
1030.0,1616.0,1994.0,1921.0,3970802.0,
1029.0,1614.0,1992.0,1919.0,3970805.0,
1029.0,1613.0,1989.0,1919.0,3970809.0,
1029.0,1615.0,1988.0,1920.0,3970813.0,
1031.0,1614.0,1987.0,1918.0,3970816.0,
1028.0,1614.0,1983.0,1920.0,3970820.0,
1026.0,1616.0,1981.0,1918.0,3970824.0,
1030.0,1614.0,1978.0,1920.0,3970827.0,
1029.0,1612.0,1976.0,1920.0,3970831.0,
1029.0,1613.0,1972.0,1921.0,3970834.0,
1029.0,1614.0,1970.0,1923.0,3970838.0,
1028.0,1613.0,1966.0,1924.0,3970842.0,
1031.0,1615.0,1964.0,1925.0,3970845.0,
1030.0,1612.0,1967.0,1927.0,3970849.0,
1029.0,1613.0,1964.0,1930.0,3970853.0,
1029.0,1613.0,1963.0,1929.0,3970856.0,
1028.0,1613.0,1962.0,1933.0,3970860.0,
1027.0,1614.0,1961.0,1933.0,3970864.0,
1029.0,1614.0,1960.0,1936.0,3970867.0,
1029.0,1613.0,1960.0,1939.0,3970871.0,
1029.0,1616.0,1961.0,1943.0,3970874.0,
1029.0,1614.0,1961.0,1948.0,3970878.0,
1030.0,1611.0,1963.0,1953.0,3970882.0,
1029.0,1612.0,1963.0,1958.0,3970885.0,
1029.0,1614.0,1963.0,1962.0,3970889.0,
1030.0,1615.0,1962.0,1968.0,3970893.0,
1030.0,1610.0,1965.0,1973.0,3970896.0,
1029.0,1612.0,1963.0,1982.0,3970900.0,
1031.0,1615.0,1965.0,1989.0,3970904.0,
1030.0,1614.0,1966.0,1996.0,3970907.0,
1028.0,1615.0,1971.0,2004.0,3970911.0,
1030.0,1615.0,1972.0,2010.0,3970914.0,
1029.0,1614.0,1976.0,2021.0,3970918.0,
1030.0,1616.0,1979.0,2027.0,3970922.0,
1029.0,1617.0,1985.0,2033.0,3970925.0,
1029.0,1619.0,1990.0,2040.0,3970929.0,
1030.0,1617.0,1996.0,2048.0,3970933.0,
1029.0,1620.0,2001.0,2053.0,3970936.0,
1029.0,1621.0,2007.0,2061.0,3970940.0,
1030.0,1620.0,2013.0,2067.0,3970943.0,
1029.0,1621.0,2022.0,2078.0,3970947.0,
1030.0,1621.0,2029.0,2085.0,3970951.0,
1029.0,1622.0,2039.0,2094.0,3970954.0,
1030.0,1622.0,2044.0,2102.0,3970958.0,
1030.0,1624.0,2060.0,2108.0,3970962.0,
1030.0,1623.0,2067.0,2119.0,3970965.0,
1031.0,1621.0,2077.0,2130.0,3970969.0,
1031.0,1623.0,2088.0,2137.0,3970973.0,
1029.0,1624.0,2098.0,2150.0,3970976.0,
1030.0,1624.0,2113.0,2154.0,3970980.0,
1030.0,1625.0,2126.0,2164.0,3970983.0,
1029.0,1624.0,2137.0,2170.0,3970987.0,
1027.0,1623.0,2150.0,2174.0,3970991.0,
1030.0,1623.0,2158.0,2180.0,3970994.0,
1029.0,1625.0,2169.0,2185.0,3970998.0,
1028.0,1624.0,2175.0,2195.0,3971002.0,
1029.0,1624.0,2183.0,2200.0,3971005.0,
1031.0,1624.0,2188.0,2205.0,3971009.0,
1031.0,1624.0,2195.0,2212.0,3971013.0,
1030.0,1624.0,2204.0,2217.0,3971016.0,
1030.0,1622.0,2205.0,2222.0,3971020.0,
1029.0,1623.0,2210.0,2230.0,3971023.0,
1029.0,1623.0,2213.0,2235.0,3971027.0,
1029.0,1623.0,2222.0,2238.0,3971031.0,
1029.0,1623.0,2222.0,2241.0,3971034.0,
1029.0,1623.0,2222.0,2243.0,3971038.0,
1029.0,1621.0,2233.0,2245.0,3971042.0,
1029.0,1621.0,2238.0,2244.0,3971045.0,
1029.0,1620.0,2240.0,2245.0,3971049.0,
1030.0,1620.0,2244.0,2245.0,3971053.0,
1029.0,1622.0,2241.0,2243.0,3971056.0,
1029.0,1622.0,2247.0,2241.0,3971060.0,
1031.0,1620.0,2248.0,2239.0,3971063.0,
1029.0,1620.0,2252.0,2239.0,3971067.0,
1030.0,1622.0,2255.0,2237.0,3971071.0,
1036.0,1625.0,2255.0,2234.0,3971074.0,
1031.0,1620.0,2255.0,2238.0,3971078.0,
1029.0,1620.0,2256.0,2226.0,3971082.0,
1030.0,1619.0,2255.0,2219.0,3971085.0,
1030.0,1620.0,2253.0,2215.0,3971089.0,
1032.0,1620.0,2256.0,2211.0,3971092.0,
1030.0,1620.0,2252.0,2206.0,3971096.0,
1030.0,1620.0,2251.0,2199.0,3971100.0,
1030.0,1620.0,2251.0,2196.0,3971103.0,
1030.0,1620.0,2248.0,2193.0,3971107.0,
1029.0,1620.0,2247.0,2185.0,3971111.0,
1029.0,1620.0,2245.0,2180.0,3971114.0,
1029.0,1619.0,2246.0,2175.0,3971118.0,
1030.0,1619.0,2242.0,2172.0,3971122.0,
1029.0,1619.0,2241.0,2166.0,3971125.0,
1030.0,1620.0,2240.0,2161.0,3971129.0,
1031.0,1619.0,2237.0,2155.0,3971132.0,
1027.0,1615.0,2235.0,2151.0,3971136.0,
1029.0,1618.0,2232.0,2144.0,3971140.0,
1031.0,1619.0,2231.0,2142.0,3971143.0,
1029.0,1618.0,2226.0,2138.0,3971147.0,
1030.0,1618.0,2226.0,2130.0,3971151.0,
1030.0,1619.0,2221.0,2123.0,3971154.0,
1029.0,1618.0,2219.0,2120.0,3971158.0,
1030.0,1619.0,2216.0,2116.0,3971162.0,
1030.0,1617.0,2204.0,2110.0,3971165.0,
1030.0,1619.0,2198.0,2107.0,3971169.0,
1030.0,1618.0,2191.0,2104.0,3971172.0,
1029.0,1618.0,2188.0,2106.0,3971176.0,
1030.0,1617.0,2182.0,2102.0,3971180.0,
1029.0,1619.0,2175.0,2098.0,3971183.0,
1030.0,1617.0,2172.0,2096.0,3971187.0,
1032.0,1618.0,2168.0,2092.0,3971191.0,
1029.0,1618.0,2164.0,2089.0,3971194.0,
1029.0,1617.0,2159.0,2086.0,3971198.0,
1030.0,1617.0,2155.0,2083.0,3971202.0,
1031.0,1617.0,2151.0,2084.0,3971205.0,
1030.0,1617.0,2148.0,2079.0,3971209.0,
1029.0,1615.0,2145.0,2075.0,3971212.0,
1029.0,1617.0,2141.0,2072.0,3971216.0,
1031.0,1616.0,2137.0,2068.0,3971220.0,
1031.0,1618.0,2133.0,2064.0,3971223.0,
1031.0,1616.0,2130.0,2061.0,3971227.0,
1029.0,1617.0,2130.0,2054.0,3971231.0,
1029.0,1616.0,2124.0,2051.0,3971234.0,
1028.0,1616.0,2119.0,2047.0,3971238.0,
1030.0,1618.0,2118.0,2044.0,3971241.0,
1029.0,1617.0,2117.0,2039.0,3971245.0,
1030.0,1615.0,2111.0,2042.0,3971249.0,
1028.0,1616.0,2104.0,2037.0,3971252.0,
1028.0,1615.0,2107.0,2034.0,3971256.0,
1030.0,1616.0,2105.0,2030.0,3971260.0,
1029.0,1615.0,2104.0,2026.0,3971263.0,
1030.0,1613.0,2104.0,2026.0,3971267.0,
1029.0,1616.0,2104.0,2025.0,3971271.0,
1029.0,1618.0,2102.0,2024.0,3971274.0,
1030.0,1615.0,2101.0,2020.0,3971278.0,
1029.0,1616.0,2101.0,2017.0,3971281.0,
1029.0,1613.0,2098.0,2018.0,3971285.0,
1030.0,1616.0,2098.0,2013.0,3971289.0,
1030.0,1616.0,2095.0,2015.0,3971292.0,
1029.0,1616.0,2096.0,2012.0,3971296.0,
1030.0,1617.0,2095.0,2011.0,3971300.0,
1031.0,1611.0,2096.0,2009.0,3971303.0,
1030.0,1614.0,2093.0,2003.0,3971307.0,
1029.0,1616.0,2093.0,1999.0,3971311.0,
1029.0,1615.0,2091.0,1998.0,3971314.0,
1028.0,1617.0,2090.0,1992.0,3971318.0,
1029.0,1616.0,2089.0,1987.0,3971321.0,
1028.0,1615.0,2087.0,1981.0,3971325.0,
1029.0,1615.0,2085.0,1971.0,3971329.0,
1030.0,1613.0,2084.0,1978.0,3971332.0,
1030.0,1615.0,2083.0,1974.0,3971336.0,
1029.0,1616.0,2081.0,1967.0,3971340.0,
1030.0,1614.0,2078.0,1962.0,3971343.0,
1029.0,1615.0,2078.0,1961.0,3971347.0,
1029.0,1615.0,2078.0,1955.0,3971351.0,
1029.0,1616.0,2074.0,1956.0,3971354.0,
1028.0,1615.0,2076.0,1954.0,3971358.0,
1029.0,1616.0,2074.0,1952.0,3971361.0,
1028.0,1614.0,2076.0,1952.0,3971365.0,
1030.0,1615.0,2072.0,1951.0,3971369.0,
1029.0,1613.0,2068.0,1951.0,3971372.0,
1029.0,1614.0,2068.0,1952.0,3971376.0,
1029.0,1614.0,2063.0,1954.0,3971380.0,
1028.0,1613.0,2061.0,1948.0,3971383.0,
1031.0,1613.0,2051.0,1950.0,3971387.0,
1024.0,1615.0,2055.0,1947.0,3971390.0,
1029.0,1612.0,2054.0,1945.0,3971394.0,
1031.0,1615.0,2049.0,1943.0,3971398.0,
1029.0,1616.0,2049.0,1941.0,3971401.0,
1028.0,1614.0,2046.0,1939.0,3971405.0,
1030.0,1615.0,2039.0,1934.0,3971409.0,
1029.0,1613.0,2039.0,1933.0,3971412.0,
1030.0,1614.0,2037.0,1933.0,3971416.0,
1027.0,1616.0,2034.0,1931.0,3971420.0,
1030.0,1615.0,2033.0,1928.0,3971423.0,
1029.0,1615.0,2030.0,1938.0,3971427.0,
1029.0,1615.0,2028.0,1932.0,3971430.0,
1029.0,1613.0,2031.0,1927.0,3971434.0,
1029.0,1614.0,2026.0,1926.0,3971438.0,
1029.0,1614.0,2024.0,1924.0,3971441.0,
1029.0,1616.0,2026.0,1921.0,3971445.0,
1030.0,1613.0,2021.0,1925.0,3971449.0,
1029.0,1614.0,2019.0,1919.0,3971452.0,
1028.0,1613.0,2019.0,1917.0,3971456.0,
1028.0,1614.0,2014.0,1915.0,3971460.0,
1030.0,1615.0,2016.0,1918.0,3971463.0,
1029.0,1612.0,2011.0,1915.0,3971467.0,
1029.0,1611.0,2012.0,1914.0,3971470.0,
1029.0,1614.0,2009.0,1911.0,3971474.0,
1024.0,1611.0,2011.0,1909.0,3971478.0,
1028.0,1614.0,2008.0,1906.0,3971481.0,
1029.0,1613.0,2007.0,1907.0,3971485.0,
1030.0,1612.0,2006.0,1908.0,3971489.0,
1029.0,1613.0,1998.0,1904.0,3971492.0,
1029.0,1614.0,2002.0,1906.0,3971496.0,
1023.0,1614.0,1999.0,1905.0,3971500.0,
1029.0,1614.0,1998.0,1908.0,3971503.0,
1029.0,1613.0,1997.0,1905.0,3971507.0,
1028.0,1613.0,1996.0,1906.0,3971510.0,
1029.0,1610.0,1991.0,1903.0,3971514.0,
1030.0,1614.0,1989.0,1899.0,3971518.0,
1029.0,1615.0,1991.0,1899.0,3971521.0,
1031.0,1615.0,1988.0,1895.0,3971525.0,
1033.0,1613.0,1988.0,1894.0,3971529.0,
1030.0,1613.0,1987.0,1896.0,3971532.0,
1028.0,1613.0,1986.0,1896.0,3971536.0,
1029.0,1615.0,1985.0,1898.0,3971540.0,
1028.0,1613.0,1986.0,1901.0,3971543.0,
1030.0,1613.0,1987.0,1901.0,3971547.0,
1028.0,1615.0,1984.0,1904.0,3971550.0,
1030.0,1613.0,1986.0,1904.0,3971554.0,
1029.0,1613.0,1985.0,1902.0,3971558.0,
1030.0,1613.0,1986.0,1901.0,3971561.0,
1029.0,1614.0,1987.0,1909.0,3971565.0,
1030.0,1611.0,1988.0,1905.0,3971569.0,
1029.0,1614.0,1987.0,1905.0,3971572.0,
1028.0,1614.0,1989.0,1905.0,3971576.0,
1029.0,1613.0,1990.0,1903.0,3971579.0,
1023.0,1614.0,1993.0,1901.0,3971583.0,
1029.0,1614.0,1992.0,1899.0,3971587.0,
1028.0,1611.0,1992.0,1898.0,3971590.0,
1030.0,1613.0,1991.0,1892.0,3971594.0,
1029.0,1612.0,1992.0,1893.0,3971598.0,
1029.0,1612.0,1992.0,1890.0,3971601.0,
1030.0,1614.0,1991.0,1890.0,3971605.0,
1030.0,1615.0,1992.0,1893.0,3971609.0,
1029.0,1614.0,1988.0,1892.0,3971612.0,
1029.0,1612.0,1985.0,1893.0,3971616.0,
1030.0,1613.0,1984.0,1896.0,3971619.0,
1028.0,1610.0,1983.0,1895.0,3971623.0,
1030.0,1611.0,1980.0,1897.0,3971627.0,
1027.0,1612.0,1980.0,1895.0,3971630.0,
1029.0,1613.0,1978.0,1898.0,3971634.0,
1029.0,1611.0,1976.0,1900.0,3971638.0,
1029.0,1611.0,1976.0,1898.0,3971641.0,
1029.0,1612.0,1978.0,1900.0,3971645.0,
1029.0,1613.0,1975.0,1900.0,3971649.0,
1029.0,1611.0,1974.0,1903.0,3971652.0,
1029.0,1612.0,1972.0,1903.0,3971656.0,
1031.0,1613.0,1970.0,1907.0,3971659.0,
1030.0,1612.0,1973.0,1909.0,3971663.0,
1029.0,1614.0,1970.0,1913.0,3971667.0,
1029.0,1613.0,1970.0,1917.0,3971670.0,
1028.0,1612.0,1972.0,1923.0,3971674.0,
1028.0,1612.0,1972.0,1929.0,3971678.0,
1029.0,1611.0,1975.0,1929.0,3971681.0,
1030.0,1611.0,1973.0,1936.0,3971685.0,
1028.0,1611.0,1977.0,1948.0,3971689.0,
1029.0,1611.0,1973.0,1942.0,3971692.0,
1029.0,1611.0,1976.0,1950.0,3971696.0,
1029.0,1610.0,1980.0,1954.0,3971699.0,
1029.0,1609.0,1978.0,1962.0,3971703.0,
1030.0,1610.0,1982.0,1967.0,3971707.0,
1029.0,1609.0,1982.0,1975.0,3971710.0,
1029.0,1609.0,1987.0,1987.0,3971714.0,
1029.0,1610.0,1990.0,1996.0,3971718.0,
1029.0,1612.0,1995.0,2007.0,3971721.0,
1036.0,1610.0,2000.0,2019.0,3971725.0,
1033.0,1611.0,2003.0,2032.0,3971728.0,
1029.0,1610.0,2008.0,2042.0,3971732.0,
1029.0,1611.0,2013.0,2056.0,3971736.0,
1029.0,1611.0,2017.0,2064.0,3971739.0,
1030.0,1608.0,2021.0,2070.0,3971743.0,
1029.0,1611.0,2029.0,2079.0,3971747.0,
1030.0,1609.0,2034.0,2086.0,3971750.0,
1030.0,1610.0,2043.0,2093.0,3971754.0,
1029.0,1610.0,2054.0,2101.0,3971758.0,
1029.0,1610.0,2064.0,2102.0,3971761.0,
1028.0,1611.0,2070.0,2113.0,3971765.0,
1030.0,1609.0,2083.0,2112.0,3971768.0,
1029.0,1612.0,2091.0,2118.0,3971772.0,
1031.0,1609.0,2103.0,2121.0,3971776.0,
1029.0,1610.0,2111.0,2128.0,3971779.0,
1030.0,1610.0,2120.0,2130.0,3971783.0,
1029.0,1610.0,2132.0,2133.0,3971787.0,
1030.0,1613.0,2138.0,2136.0,3971790.0,
1029.0,1611.0,2147.0,2139.0,3971794.0,
1024.0,1611.0,2154.0,2140.0,3971798.0,
1029.0,1612.0,2163.0,2140.0,3971801.0,
1029.0,1614.0,2169.0,2144.0,3971805.0,
1030.0,1612.0,2177.0,2141.0,3971808.0,
1023.0,1613.0,2182.0,2143.0,3971812.0,
1030.0,1613.0,2189.0,2141.0,3971816.0,
1030.0,1610.0,2192.0,2143.0,3971819.0,
1022.0,1612.0,2199.0,2142.0,3971823.0,
1032.0,1613.0,2206.0,2145.0,3971827.0,
1030.0,1612.0,2210.0,2148.0,3971830.0,
1029.0,1612.0,2213.0,2148.0,3971834.0,
1031.0,1614.0,2217.0,2147.0,3971837.0,
1027.0,1614.0,2224.0,2149.0,3971841.0,
1031.0,1612.0,2229.0,2151.0,3971845.0,
1030.0,1612.0,2235.0,2152.0,3971848.0,
1028.0,1614.0,2235.0,2153.0,3971852.0,
1028.0,1614.0,2243.0,2156.0,3971856.0,
1030.0,1613.0,2245.0,2155.0,3971859.0,
1029.0,1613.0,2247.0,2154.0,3971863.0,
1029.0,1611.0,2251.0,2157.0,3971867.0,
1030.0,1614.0,2252.0,2157.0,3971870.0,
1029.0,1613.0,2254.0,2154.0,3971874.0,
1030.0,1613.0,2252.0,2154.0,3971877.0,
1030.0,1613.0,2250.0,2151.0,3971881.0,
1031.0,1613.0,2256.0,2147.0,3971885.0,
1029.0,1613.0,2248.0,2147.0,3971888.0,
1030.0,1615.0,2248.0,2138.0,3971892.0,
1030.0,1613.0,2244.0,2134.0,3971896.0,
1030.0,1614.0,2242.0,2126.0,3971899.0,
1030.0,1613.0,2240.0,2122.0,3971903.0,
1031.0,1613.0,2235.0,2111.0,3971907.0,
1031.0,1612.0,2233.0,2105.0,3971910.0,
1031.0,1615.0,2229.0,2101.0,3971914.0,
1030.0,1612.0,2225.0,2094.0,3971917.0,
1029.0,1615.0,2217.0,2088.0,3971921.0,
1031.0,1613.0,2214.0,2084.0,3971925.0,
1029.0,1615.0,2206.0,2077.0,3971928.0,
1030.0,1612.0,2202.0,2071.0,3971932.0,
1030.0,1613.0,2196.0,2069.0,3971936.0,
1030.0,1613.0,2189.0,2063.0,3971939.0,
1030.0,1614.0,2181.0,2055.0,3971943.0,
1029.0,1610.0,2177.0,2048.0,3971947.0,
1031.0,1615.0,2168.0,2038.0,3971950.0,
1030.0,1615.0,2163.0,2032.0,3971954.0,
1030.0,1614.0,2155.0,2024.0,3971957.0,
1025.0,1615.0,2147.0,2018.0,3971961.0,
1030.0,1618.0,2141.0,2016.0,3971965.0,
1031.0,1616.0,2134.0,2012.0,3971968.0,
1031.0,1616.0,2128.0,1999.0,3971972.0,
1030.0,1616.0,2120.0,2004.0,3971976.0,
1029.0,1616.0,2116.0,2001.0,3971979.0,
1029.0,1616.0,2112.0,2001.0,3971983.0,
1029.0,1618.0,2106.0,1998.0,3971986.0,
1029.0,1616.0,2099.0,2000.0,3971990.0,
1030.0,1617.0,2098.0,1998.0,3971994.0,
1030.0,1617.0,2094.0,1997.0,3971997.0,
1031.0,1617.0,2089.0,1993.0,3972001.0,
1030.0,1618.0,2088.0,1994.0,3972005.0,
1031.0,1621.0,2083.0,1992.0,3972008.0,
1029.0,1617.0,2080.0,1990.0,3972012.0,
1029.0,1615.0,2077.0,1990.0,3972016.0,
1029.0,1624.0,2072.0,1990.0,3972019.0,
1030.0,1618.0,2067.0,1986.0,3972023.0,
1029.0,1621.0,2066.0,1984.0,3972026.0,
1031.0,1618.0,2062.0,1982.0,3972030.0,
1030.0,1617.0,2062.0,1979.0,3972034.0,
1030.0,1617.0,2060.0,1976.0,3972037.0,
1030.0,1619.0,2053.0,1968.0,3972041.0,
1030.0,1619.0,2055.0,1966.0,3972045.0,
1029.0,1619.0,2055.0,1965.0,3972048.0,
1024.0,1619.0,2054.0,1963.0,3972052.0,
1030.0,1613.0,2054.0,1963.0,3972056.0,
1026.0,1619.0,2054.0,1958.0,3972059.0,
1030.0,1618.0,2055.0,1958.0,3972063.0,
1029.0,1618.0,2057.0,1960.0,3972066.0,
1029.0,1619.0,2057.0,1961.0,3972070.0,
1029.0,1619.0,2058.0,1960.0,3972074.0,
1030.0,1618.0,2058.0,1959.0,3972077.0,
1029.0,1620.0,2061.0,1959.0,3972081.0,
1028.0,1619.0,2062.0,1958.0,3972085.0,
1029.0,1618.0,2063.0,1957.0,3972088.0,
1030.0,1621.0,2061.0,1958.0,3972092.0,
1030.0,1618.0,2060.0,1959.0,3972096.0,
1029.0,1617.0,2059.0,1957.0,3972099.0,
1030.0,1619.0,2058.0,1957.0,3972103.0,
1029.0,1617.0,2057.0,1954.0,3972106.0,
1029.0,1619.0,2055.0,1952.0,3972110.0,
1030.0,1618.0,2055.0,1949.0,3972114.0,
1030.0,1619.0,2055.0,1947.0,3972117.0,
1024.0,1618.0,2052.0,1946.0,3972121.0,
1029.0,1617.0,2051.0,1942.0,3972125.0,
1030.0,1619.0,2049.0,1941.0,3972128.0,
1031.0,1619.0,2048.0,1937.0,3972132.0,
1030.0,1619.0,2046.0,1934.0,3972135.0,
1029.0,1618.0,2044.0,1927.0,3972139.0,
1030.0,1617.0,2041.0,1917.0,3972143.0,
1030.0,1618.0,2042.0,1920.0,3972146.0,
1028.0,1616.0,2037.0,1920.0,3972150.0,
1032.0,1619.0,2030.0,1920.0,3972154.0,
1030.0,1623.0,2030.0,1918.0,3972157.0,
1029.0,1618.0,2021.0,1916.0,3972161.0,
1023.0,1619.0,2024.0,1912.0,3972165.0,
1030.0,1621.0,2021.0,1910.0,3972168.0,
1028.0,1622.0,2015.0,1910.0,3972172.0,
1028.0,1623.0,2012.0,1909.0,3972175.0,
1030.0,1624.0,2012.0,1911.0,3972179.0,
1030.0,1623.0,2006.0,1910.0,3972183.0,
1029.0,1625.0,2005.0,1911.0,3972186.0,
1030.0,1626.0,2005.0,1907.0,3972190.0,
1030.0,1626.0,2003.0,1907.0,3972194.0,
1029.0,1627.0,2001.0,1905.0,3972197.0,
1030.0,1628.0,2000.0,1905.0,3972201.0,
1029.0,1630.0,2001.0,1906.0,3972205.0,
1030.0,1626.0,2000.0,1901.0,3972208.0,
1029.0,1631.0,2000.0,1903.0,3972212.0,
1030.0,1628.0,2001.0,1905.0,3972215.0,
1031.0,1631.0,1998.0,1901.0,3972219.0,
1027.0,1633.0,2000.0,1902.0,3972223.0,
1029.0,1630.0,2000.0,1905.0,3972226.0,
1029.0,1633.0,1998.0,1905.0,3972230.0,
1030.0,1635.0,1997.0,1905.0,3972234.0,
1029.0,1633.0,1999.0,1903.0,3972237.0,
1023.0,1635.0,1997.0,1902.0,3972241.0,
1029.0,1635.0,1995.0,1901.0,3972245.0,
1030.0,1635.0,1995.0,1899.0,3972248.0,
1029.0,1635.0,1994.0,1902.0,3972252.0,
1030.0,1634.0,1990.0,1904.0,3972255.0,
1030.0,1636.0,1985.0,1903.0,3972259.0,
1030.0,1630.0,1987.0,1907.0,3972263.0,
1032.0,1636.0,1987.0,1904.0,3972266.0,
1031.0,1637.0,1983.0,1902.0,3972270.0,
1030.0,1637.0,1982.0,1903.0,3972274.0,
1030.0,1635.0,1977.0,1901.0,3972277.0,
1029.0,1637.0,1977.0,1900.0,3972281.0,
1032.0,1637.0,1974.0,1901.0,3972284.0,
1029.0,1635.0,1975.0,1901.0,3972288.0,
1029.0,1639.0,1975.0,1904.0,3972292.0,
1029.0,1637.0,1971.0,1904.0,3972295.0,
1029.0,1637.0,1968.0,1902.0,3972299.0,
1029.0,1635.0,1969.0,1900.0,3972303.0,
1029.0,1634.0,1967.0,1903.0,3972306.0,
1030.0,1632.0,1969.0,1902.0,3972310.0,
1031.0,1634.0,1968.0,1901.0,3972314.0,
1030.0,1633.0,1968.0,1903.0,3972317.0,
1029.0,1632.0,1966.0,1902.0,3972321.0,
1030.0,1633.0,1967.0,1900.0,3972324.0,
1030.0,1631.0,1966.0,1898.0,3972328.0,
1030.0,1631.0,1965.0,1896.0,3972332.0,
1030.0,1630.0,1966.0,1892.0,3972335.0,
1030.0,1631.0,1967.0,1891.0,3972339.0,
1030.0,1632.0,1966.0,1888.0,3972343.0,
1030.0,1628.0,1967.0,1883.0,3972346.0,
1029.0,1630.0,1967.0,1881.0,3972350.0,
1030.0,1629.0,1970.0,1877.0,3972354.0,
1029.0,1630.0,1969.0,1877.0,3972357.0,
1027.0,1629.0,1971.0,1877.0,3972361.0,
1030.0,1633.0,1968.0,1880.0,3972364.0,
1031.0,1627.0,1970.0,1880.0,3972368.0,
1029.0,1629.0,1970.0,1880.0,3972372.0,
1029.0,1630.0,1968.0,1883.0,3972375.0,
1030.0,1628.0,1968.0,1888.0,3972379.0,
1027.0,1626.0,1967.0,1884.0,3972383.0,
1028.0,1626.0,1963.0,1886.0,3972386.0,
1031.0,1626.0,1964.0,1881.0,3972390.0,
1028.0,1625.0,1959.0,1881.0,3972394.0,
1030.0,1626.0,1962.0,1885.0,3972397.0,
1030.0,1625.0,1956.0,1886.0,3972401.0,
1031.0,1625.0,1953.0,1885.0,3972404.0,
1032.0,1626.0,1950.0,1884.0,3972408.0,
1029.0,1629.0,1948.0,1883.0,3972412.0,
1028.0,1628.0,1945.0,1887.0,3972415.0,
1029.0,1630.0,1945.0,1886.0,3972419.0,
1030.0,1630.0,1943.0,1889.0,3972423.0,
1030.0,1633.0,1939.0,1893.0,3972426.0,
1030.0,1634.0,1939.0,1893.0,3972430.0,
1029.0,1636.0,1935.0,1898.0,3972433.0,
1030.0,1636.0,1932.0,1897.0,3972437.0,
1030.0,1636.0,1931.0,1901.0,3972441.0,
1027.0,1639.0,1931.0,1908.0,3972444.0,
1029.0,1639.0,1927.0,1912.0,3972448.0,
1030.0,1642.0,1926.0,1915.0,3972452.0,
1030.0,1641.0,1925.0,1925.0,3972455.0,
1026.0,1642.0,1923.0,1930.0,3972459.0,
1028.0,1644.0,1924.0,1934.0,3972463.0,
1030.0,1643.0,1926.0,1940.0,3972466.0,
1030.0,1642.0,1924.0,1944.0,3972470.0,
1029.0,1642.0,1926.0,1952.0,3972473.0,
1028.0,1642.0,1930.0,1953.0,3972477.0,
1030.0,1641.0,1931.0,1957.0,3972481.0,
1030.0,1641.0,1933.0,1961.0,3972484.0,
1030.0,1642.0,1932.0,1964.0,3972488.0,
1028.0,1641.0,1937.0,1969.0,3972492.0,
1030.0,1639.0,1940.0,1975.0,3972495.0,
1031.0,1640.0,1945.0,1979.0,3972499.0,
1029.0,1641.0,1949.0,1983.0,3972503.0,
1031.0,1636.0,1953.0,1989.0,3972506.0,
1029.0,1639.0,1959.0,1995.0,3972510.0,
1028.0,1638.0,1965.0,2000.0,3972513.0,
1029.0,1637.0,1974.0,2009.0,3972517.0,
1029.0,1637.0,1978.0,2015.0,3972521.0,
1029.0,1637.0,1983.0,2022.0,3972524.0,
1030.0,1635.0,1993.0,2025.0,3972528.0,
1030.0,1635.0,1997.0,2032.0,3972532.0,
1031.0,1636.0,2005.0,2040.0,3972535.0,
1029.0,1634.0,2012.0,2045.0,3972539.0,
1029.0,1636.0,2018.0,2055.0,3972543.0,
1030.0,1634.0,2026.0,2060.0,3972546.0,
1029.0,1634.0,2032.0,2066.0,3972550.0,
1030.0,1634.0,2040.0,2072.0,3972553.0,
1030.0,1633.0,2046.0,2076.0,3972557.0,
1029.0,1634.0,2054.0,2080.0,3972561.0,
1030.0,1632.0,2061.0,2082.0,3972564.0,
1031.0,1633.0,2067.0,2082.0,3972568.0,
1030.0,1631.0,2075.0,2089.0,3972572.0,
1030.0,1630.0,2081.0,2085.0,3972575.0,
1030.0,1630.0,2092.0,2088.0,3972579.0,
1025.0,1631.0,2093.0,2085.0,3972582.0,
1030.0,1630.0,2101.0,2086.0,3972586.0,
1029.0,1630.0,2104.0,2086.0,3972590.0,
1030.0,1629.0,2109.0,2089.0,3972593.0,
1029.0,1626.0,2113.0,2087.0,3972597.0,
1030.0,1629.0,2113.0,2084.0,3972601.0,
1026.0,1624.0,2114.0,2084.0,3972604.0,
1030.0,1630.0,2114.0,2083.0,3972608.0,
1030.0,1626.0,2115.0,2082.0,3972612.0,
1029.0,1627.0,2109.0,2078.0,3972615.0,
1030.0,1627.0,2109.0,2075.0,3972619.0,
1030.0,1625.0,2107.0,2071.0,3972622.0,
1030.0,1626.0,2107.0,2072.0,3972626.0,
1029.0,1625.0,2102.0,2068.0,3972630.0,
1029.0,1627.0,2099.0,2068.0,3972633.0,
1030.0,1632.0,2098.0,2065.0,3972637.0,
1027.0,1628.0,2091.0,2062.0,3972641.0,
1029.0,1627.0,2086.0,2059.0,3972644.0,
1030.0,1632.0,2085.0,2058.0,3972648.0,
1026.0,1623.0,2078.0,2056.0,3972652.0,
1030.0,1628.0,2075.0,2052.0,3972655.0,
1030.0,1628.0,2070.0,2049.0,3972659.0,
1030.0,1627.0,2065.0,2044.0,3972662.0,
1030.0,1627.0,2062.0,2045.0,3972666.0,
1030.0,1629.0,2056.0,2040.0,3972670.0,
1030.0,1630.0,2052.0,2034.0,3972673.0,
1029.0,1632.0,2047.0,2031.0,3972677.0,
1029.0,1632.0,2043.0,2026.0,3972681.0,
1031.0,1632.0,2042.0,2023.0,3972684.0,
1029.0,1631.0,2040.0,2017.0,3972688.0,
1030.0,1633.0,2037.0,2014.0,3972692.0,
1030.0,1636.0,2037.0,2013.0,3972695.0,
1031.0,1634.0,2027.0,2011.0,3972699.0,
1030.0,1634.0,2035.0,2010.0,3972702.0,
1029.0,1635.0,2037.0,2007.0,3972706.0,
1030.0,1635.0,2036.0,2006.0,3972710.0,
1030.0,1636.0,2038.0,2005.0,3972713.0,
1030.0,1636.0,2040.0,2001.0,3972717.0,
1024.0,1636.0,2039.0,1997.0,3972721.0,
1027.0,1637.0,2041.0,1997.0,3972724.0,
1029.0,1637.0,2039.0,1993.0,3972728.0,
1029.0,1638.0,2048.0,1989.0,3972732.0,
1030.0,1638.0,2048.0,1990.0,3972735.0,
1030.0,1636.0,2047.0,1990.0,3972739.0,
1025.0,1640.0,2051.0,1987.0,3972742.0,
1029.0,1642.0,2048.0,1987.0,3972746.0,
1028.0,1640.0,2048.0,1984.0,3972750.0,
1031.0,1641.0,2051.0,1985.0,3972753.0,
1031.0,1643.0,2053.0,1984.0,3972757.0,
1031.0,1643.0,2053.0,1985.0,3972761.0,
1030.0,1644.0,2053.0,1982.0,3972764.0,
1030.0,1645.0,2053.0,1981.0,3972768.0,
1029.0,1646.0,2052.0,1979.0,3972771.0,
1030.0,1646.0,2053.0,1978.0,3972775.0,
1031.0,1646.0,2050.0,1977.0,3972779.0,
1030.0,1647.0,2048.0,1976.0,3972782.0,
1035.0,1646.0,2050.0,1977.0,3972786.0,
1031.0,1646.0,2048.0,1981.0,3972790.0,
1030.0,1650.0,2049.0,1978.0,3972793.0,
1030.0,1648.0,2051.0,1976.0,3972797.0,
1030.0,1648.0,2047.0,1979.0,3972801.0,
1029.0,1650.0,2051.0,1979.0,3972804.0,
1031.0,1650.0,2048.0,1981.0,3972808.0,
1030.0,1651.0,2046.0,1981.0,3972811.0,
1030.0,1650.0,2043.0,1984.0,3972815.0,
1031.0,1650.0,2044.0,1984.0,3972819.0,
1030.0,1651.0,2043.0,1982.0,3972822.0,
1029.0,1650.0,2039.0,1981.0,3972826.0,
1030.0,1653.0,2035.0,1981.0,3972830.0,
1031.0,1651.0,2034.0,1982.0,3972833.0,
1031.0,1651.0,2030.0,1981.0,3972837.0,
1030.0,1654.0,2029.0,1981.0,3972841.0,
1029.0,1650.0,2029.0,1980.0,3972844.0,
1030.0,1650.0,2026.0,1976.0,3972848.0,
1030.0,1650.0,2025.0,1975.0,3972851.0,
1029.0,1653.0,2023.0,1975.0,3972855.0,
1032.0,1651.0,2020.0,1974.0,3972859.0,
1029.0,1651.0,2019.0,1971.0,3972862.0,
1031.0,1649.0,2012.0,1968.0,3972866.0,
1029.0,1648.0,2014.0,1968.0,3972870.0,
1029.0,1648.0,2014.0,1963.0,3972873.0,
1030.0,1653.0,2013.0,1962.0,3972877.0,
1030.0,1650.0,2010.0,1958.0,3972881.0,
1031.0,1649.0,2010.0,1957.0,3972884.0,
1029.0,1651.0,2008.0,1954.0,3972888.0,
1030.0,1647.0,2010.0,1951.0,3972891.0,
1030.0,1650.0,2009.0,1951.0,3972895.0,
1032.0,1649.0,2008.0,1950.0,3972899.0,
1030.0,1647.0,2006.0,1948.0,3972902.0,
1030.0,1650.0,2007.0,1948.0,3972906.0,
1030.0,1647.0,2004.0,1945.0,3972910.0,
1030.0,1647.0,2002.0,1949.0,3972913.0,
1030.0,1648.0,2004.0,1952.0,3972917.0,
1029.0,1646.0,2004.0,1950.0,3972920.0,
1030.0,1646.0,2007.0,1950.0,3972924.0,
1029.0,1646.0,2005.0,1949.0,3972928.0,
1030.0,1645.0,2003.0,1948.0,3972931.0,
1030.0,1645.0,2002.0,1948.0,3972935.0,
1030.0,1645.0,2003.0,1949.0,3972939.0,
1030.0,1646.0,2000.0,1952.0,3972942.0,
1031.0,1646.0,1998.0,1954.0,3972946.0,
1029.0,1644.0,1997.0,1955.0,3972950.0,
1030.0,1644.0,1997.0,1954.0,3972953.0,
1030.0,1642.0,1993.0,1956.0,3972957.0,
1028.0,1644.0,1990.0,1956.0,3972960.0,
1026.0,1643.0,1987.0,1958.0,3972964.0,
1031.0,1642.0,1984.0,1958.0,3972968.0,
1030.0,1640.0,1981.0,1958.0,3972971.0,
1030.0,1642.0,1980.0,1960.0,3972975.0,
1031.0,1643.0,1978.0,1961.0,3972979.0,
1030.0,1641.0,1975.0,1960.0,3972982.0,
1030.0,1640.0,1971.0,1959.0,3972986.0,
1030.0,1641.0,1972.0,1957.0,3972990.0,
1030.0,1641.0,1968.0,1956.0,3972993.0,
1030.0,1641.0,1968.0,1954.0,3972997.0,
1029.0,1640.0,1966.0,1949.0,3973000.0,
1030.0,1641.0,1962.0,1947.0,3973004.0,
1030.0,1640.0,1959.0,1947.0,3973008.0,
1030.0,1641.0,1958.0,1944.0,3973011.0,
1029.0,1641.0,1958.0,1944.0,3973015.0,
1031.0,1639.0,1956.0,1939.0,3973019.0,
1030.0,1640.0,1954.0,1936.0,3973022.0,
1030.0,1641.0,1952.0,1936.0,3973026.0,
1030.0,1640.0,1952.0,1934.0,3973030.0,
1030.0,1640.0,1952.0,1932.0,3973033.0,
1030.0,1640.0,1953.0,1933.0,3973037.0,
1031.0,1640.0,1954.0,1927.0,3973040.0,
1030.0,1640.0,1954.0,1927.0,3973044.0,
1035.0,1641.0,1950.0,1928.0,3973048.0,
1029.0,1638.0,1952.0,1925.0,3973051.0,
1030.0,1639.0,1953.0,1920.0,3973055.0,
1034.0,1639.0,1952.0,1918.0,3973059.0,
1029.0,1639.0,1953.0,1915.0,3973062.0,
1031.0,1639.0,1951.0,1915.0,3973066.0,
1029.0,1639.0,1956.0,1910.0,3973069.0,
1031.0,1639.0,1953.0,1913.0,3973073.0,
1032.0,1639.0,1955.0,1913.0,3973077.0,
1031.0,1638.0,1956.0,1911.0,3973080.0,
1030.0,1636.0,1956.0,1909.0,3973084.0,
1030.0,1639.0,1959.0,1909.0,3973088.0,
1031.0,1638.0,1956.0,1906.0,3973091.0,
1030.0,1639.0,1956.0,1905.0,3973095.0,
1031.0,1637.0,1958.0,1904.0,3973099.0,
1029.0,1637.0,1956.0,1904.0,3973102.0,
1030.0,1639.0,1955.0,1906.0,3973106.0,
1030.0,1637.0,1953.0,1912.0,3973109.0,
1030.0,1636.0,1953.0,1904.0,3973113.0,
1029.0,1638.0,1952.0,1903.0,3973117.0,
1029.0,1637.0,1951.0,1907.0,3973120.0,
1036.0,1637.0,1950.0,1903.0,3973124.0,
1030.0,1636.0,1949.0,1908.0,3973128.0,
1031.0,1635.0,1951.0,1907.0,3973131.0,
1030.0,1636.0,1949.0,1909.0,3973135.0,
1031.0,1636.0,1949.0,1913.0,3973139.0,
1030.0,1637.0,1949.0,1916.0,3973142.0,
1028.0,1635.0,1951.0,1916.0,3973146.0,
1029.0,1636.0,1946.0,1917.0,3973149.0,
1028.0,1637.0,1944.0,1920.0,3973153.0,
1031.0,1635.0,1942.0,1923.0,3973157.0,
1030.0,1636.0,1943.0,1926.0,3973160.0,
1029.0,1637.0,1936.0,1931.0,3973164.0,
1027.0,1637.0,1938.0,1934.0,3973168.0,
1031.0,1637.0,1933.0,1936.0,3973171.0,
1030.0,1637.0,1932.0,1939.0,3973175.0,
1030.0,1636.0,1929.0,1944.0,3973179.0,
1029.0,1636.0,1928.0,1944.0,3973182.0,
1031.0,1636.0,1926.0,1950.0,3973186.0,
1031.0,1637.0,1926.0,1955.0,3973189.0,
1030.0,1636.0,1923.0,1960.0,3973193.0,
1029.0,1635.0,1926.0,1967.0,3973197.0,
1031.0,1638.0,1922.0,1974.0,3973200.0,
1030.0,1634.0,1921.0,1983.0,3973204.0,
1030.0,1634.0,1927.0,1991.0,3973208.0,
1030.0,1637.0,1924.0,1994.0,3973211.0,
1029.0,1635.0,1928.0,2001.0,3973215.0,
1029.0,1634.0,1928.0,2006.0,3973218.0,
1028.0,1634.0,1933.0,2013.0,3973222.0,
1030.0,1635.0,1937.0,2020.0,3973226.0,
1029.0,1634.0,1943.0,2023.0,3973229.0,
1031.0,1635.0,1945.0,2029.0,3973233.0,
1030.0,1634.0,1951.0,2033.0,3973237.0,
1029.0,1633.0,1957.0,2035.0,3973240.0,
1030.0,1633.0,1960.0,2038.0,3973244.0,
1030.0,1632.0,1965.0,2045.0,3973248.0,
1029.0,1634.0,1966.0,2048.0,3973251.0,
1032.0,1633.0,1976.0,2052.0,3973255.0,
1030.0,1633.0,1982.0,2055.0,3973258.0,
1030.0,1633.0,1984.0,2065.0,3973262.0,
1030.0,1633.0,1990.0,2072.0,3973266.0,
1029.0,1633.0,1997.0,2075.0,3973269.0,
1030.0,1633.0,2002.0,2082.0,3973273.0,
1030.0,1632.0,2010.0,2090.0,3973277.0,
1031.0,1634.0,2016.0,2095.0,3973280.0,
1032.0,1632.0,2023.0,2105.0,3973284.0,
1028.0,1632.0,2030.0,2109.0,3973288.0,
1029.0,1631.0,2037.0,2115.0,3973291.0,
1030.0,1631.0,2046.0,2119.0,3973295.0,
1030.0,1635.0,2053.0,2122.0,3973298.0,
1037.0,1631.0,2062.0,2119.0,3973302.0,
1029.0,1632.0,2068.0,2125.0,3973306.0,
1029.0,1629.0,2076.0,2128.0,3973309.0,
1030.0,1629.0,2082.0,2133.0,3973313.0,
1030.0,1631.0,2090.0,2133.0,3973317.0,
1030.0,1633.0,2094.0,2137.0,3973320.0,
1030.0,1629.0,2099.0,2142.0,3973324.0,
1029.0,1631.0,2105.0,2144.0,3973328.0,
1030.0,1630.0,2111.0,2143.0,3973331.0,
1031.0,1630.0,2114.0,2147.0,3973335.0,
1031.0,1630.0,2117.0,2147.0,3973338.0,
1030.0,1632.0,2124.0,2148.0,3973342.0,
1030.0,1631.0,2126.0,2150.0,3973346.0,
1030.0,1631.0,2133.0,2151.0,3973349.0,
1029.0,1631.0,2132.0,2149.0,3973353.0,
1031.0,1630.0,2136.0,2148.0,3973357.0,
1031.0,1633.0,2141.0,2145.0,3973360.0,
1030.0,1631.0,2142.0,2141.0,3973364.0,
1030.0,1630.0,2144.0,2136.0,3973368.0,
1030.0,1631.0,2142.0,2133.0,3973371.0,
1031.0,1630.0,2144.0,2129.0,3973375.0,
1030.0,1631.0,2144.0,2127.0,3973378.0,
1030.0,1630.0,2146.0,2122.0,3973382.0,
1030.0,1631.0,2143.0,2115.0,3973386.0,
1029.0,1633.0,2144.0,2113.0,3973389.0,
1031.0,1630.0,2139.0,2108.0,3973393.0,
1030.0,1634.0,2139.0,2099.0,3973397.0,
1030.0,1631.0,2138.0,2095.0,3973400.0,
1030.0,1631.0,2136.0,2090.0,3973404.0,
1030.0,1629.0,2135.0,2086.0,3973407.0,
1030.0,1630.0,2133.0,2081.0,3973411.0,
1031.0,1632.0,2131.0,2075.0,3973415.0,
1030.0,1630.0,2127.0,2070.0,3973418.0,
1030.0,1629.0,2127.0,2066.0,3973422.0,
1030.0,1631.0,2125.0,2058.0,3973426.0,
1035.0,1631.0,2125.0,2053.0,3973429.0,
1031.0,1631.0,2123.0,2049.0,3973433.0,
1029.0,1631.0,2118.0,2045.0,3973437.0,
1030.0,1637.0,2121.0,2042.0,3973440.0,
1030.0,1632.0,2120.0,2038.0,3973444.0,
1030.0,1632.0,2118.0,2034.0,3973447.0,
1030.0,1632.0,2117.0,2031.0,3973451.0,
1030.0,1629.0,2114.0,2028.0,3973455.0,
1030.0,1632.0,2114.0,2025.0,3973458.0,
1030.0,1631.0,2111.0,2027.0,3973462.0,
1029.0,1630.0,2108.0,2023.0,3973466.0,
1029.0,1627.0,2107.0,2021.0,3973469.0,
1030.0,1631.0,2106.0,2021.0,3973473.0,
1029.0,1632.0,2102.0,2022.0,3973477.0,
1029.0,1633.0,2100.0,2020.0,3973480.0,
1030.0,1631.0,2095.0,2019.0,3973484.0,
1030.0,1631.0,2093.0,2020.0,3973487.0,
1028.0,1629.0,2088.0,2018.0,3973491.0,
1028.0,1631.0,2086.0,2018.0,3973495.0,
1029.0,1629.0,2085.0,2018.0,3973498.0,
1029.0,1631.0,2080.0,2017.0,3973502.0,
1031.0,1630.0,2074.0,2021.0,3973506.0,
1029.0,1631.0,2071.0,2022.0,3973509.0,
1030.0,1631.0,2071.0,2020.0,3973513.0,
1030.0,1630.0,2068.0,2021.0,3973517.0,
1030.0,1631.0,2062.0,2022.0,3973520.0,
1031.0,1630.0,2068.0,2018.0,3973524.0,
1030.0,1629.0,2062.0,2019.0,3973527.0,
1030.0,1630.0,2059.0,2018.0,3973531.0,
1030.0,1630.0,2061.0,2016.0,3973535.0,
1030.0,1630.0,2057.0,2013.0,3973538.0,
1029.0,1630.0,2057.0,2014.0,3973542.0,
1030.0,1631.0,2055.0,2012.0,3973546.0,
1030.0,1629.0,2054.0,2012.0,3973549.0,
1030.0,1630.0,2055.0,2014.0,3973553.0,
1029.0,1631.0,2050.0,2010.0,3973556.0,
1030.0,1630.0,2053.0,2010.0,3973560.0,
1029.0,1628.0,2053.0,2008.0,3973564.0,
1029.0,1629.0,2051.0,2008.0,3973567.0,
1032.0,1630.0,2050.0,2008.0,3973571.0,
1029.0,1630.0,2051.0,2008.0,3973575.0,
1029.0,1631.0,2049.0,2004.0,3973578.0,
1029.0,1631.0,2050.0,2000.0,3973582.0,
1030.0,1629.0,2049.0,1996.0,3973586.0,
1031.0,1631.0,2051.0,1999.0,3973589.0,
1028.0,1631.0,2044.0,1997.0,3973593.0,
1032.0,1630.0,2049.0,1998.0,3973596.0,
1030.0,1629.0,2047.0,1997.0,3973600.0,
1030.0,1630.0,2048.0,1992.0,3973604.0,
1029.0,1631.0,2045.0,1991.0,3973607.0,
1030.0,1632.0,2045.0,1989.0,3973611.0,
1030.0,1632.0,2044.0,1985.0,3973615.0,
1031.0,1632.0,2044.0,1981.0,3973618.0,
1029.0,1629.0,2043.0,1978.0,3973622.0,
1029.0,1628.0,2042.0,1977.0,3973626.0,
1027.0,1630.0,2043.0,1973.0,3973629.0,
1030.0,1629.0,2036.0,1973.0,3973633.0,
1030.0,1629.0,2034.0,1970.0,3973636.0,
1030.0,1631.0,2039.0,1972.0,3973640.0,
1029.0,1630.0,2035.0,1971.0,3973644.0,
1028.0,1632.0,2036.0,1972.0,3973647.0,
1029.0,1629.0,2034.0,1973.0,3973651.0,
1028.0,1627.0,2036.0,1975.0,3973655.0,
1029.0,1630.0,2034.0,1977.0,3973658.0,
1029.0,1626.0,2034.0,1960.0,3973662.0,
1029.0,1628.0,2033.0,1969.0,3973666.0,
1029.0,1624.0,2033.0,1968.0,3973669.0,
1030.0,1629.0,2029.0,1966.0,3973673.0,
1030.0,1629.0,2028.0,1965.0,3973676.0,
1029.0,1628.0,2030.0,1965.0,3973680.0,
1030.0,1628.0,2027.0,1960.0,3973684.0,
1031.0,1630.0,2024.0,1962.0,3973687.0,
1029.0,1628.0,2022.0,1965.0,3973691.0,
1028.0,1628.0,2022.0,1962.0,3973695.0,
1029.0,1629.0,2018.0,1962.0,3973698.0,
1028.0,1627.0,2016.0,1961.0,3973702.0,
1030.0,1627.0,2013.0,1960.0,3973705.0,
1032.0,1628.0,2012.0,1962.0,3973709.0,
1032.0,1626.0,2013.0,1960.0,3973713.0,
1028.0,1627.0,2009.0,1959.0,3973716.0,
1029.0,1626.0,2008.0,1956.0,3973720.0,
1029.0,1628.0,2008.0,1953.0,3973724.0,
1029.0,1629.0,2006.0,1953.0,3973727.0,
1029.0,1627.0,2001.0,1950.0,3973731.0,
1030.0,1627.0,2001.0,1951.0,3973735.0,
1028.0,1630.0,1997.0,1949.0,3973738.0,
1028.0,1629.0,1996.0,1951.0,3973742.0,
1029.0,1633.0,1996.0,1948.0,3973745.0,
1029.0,1627.0,1997.0,1949.0,3973749.0,
1029.0,1626.0,1994.0,1949.0,3973753.0,
1029.0,1627.0,1995.0,1948.0,3973756.0,
1029.0,1628.0,1991.0,1949.0,3973760.0,
1029.0,1627.0,1995.0,1947.0,3973764.0,
1028.0,1627.0,1997.0,1948.0,3973767.0,
1029.0,1628.0,2001.0,1947.0,3973771.0,
1029.0,1627.0,2003.0,1947.0,3973775.0,
1029.0,1623.0,2008.0,1946.0,3973778.0,
1029.0,1625.0,2002.0,1943.0,3973782.0,
1028.0,1629.0,2001.0,1951.0,3973785.0,
1029.0,1628.0,2002.0,1941.0,3973789.0,
1030.0,1626.0,2000.0,1939.0,3973793.0,
1027.0,1628.0,2001.0,1937.0,3973796.0,
1026.0,1629.0,1997.0,1934.0,3973800.0,
1029.0,1625.0,1995.0,1934.0,3973804.0,
1028.0,1625.0,1996.0,1931.0,3973807.0,
1028.0,1629.0,1994.0,1931.0,3973811.0,
1030.0,1628.0,1993.0,1931.0,3973815.0,
1028.0,1630.0,1993.0,1928.0,3973818.0,
1028.0,1626.0,1995.0,1932.0,3973822.0,
1028.0,1629.0,1991.0,1928.0,3973825.0,
1028.0,1629.0,1991.0,1930.0,3973829.0,
1031.0,1630.0,1990.0,1927.0,3973833.0,
1029.0,1629.0,1990.0,1926.0,3973836.0,
1028.0,1628.0,1989.0,1926.0,3973840.0,
1029.0,1629.0,1986.0,1924.0,3973844.0,
1028.0,1628.0,1986.0,1927.0,3973847.0,
1029.0,1629.0,1986.0,1929.0,3973851.0,
1028.0,1628.0,1984.0,1931.0,3973855.0,
1027.0,1630.0,1984.0,1932.0,3973858.0,
1028.0,1628.0,1981.0,1930.0,3973862.0,
1022.0,1628.0,1983.0,1929.0,3973865.0,
1029.0,1628.0,1981.0,1931.0,3973869.0,
1028.0,1630.0,1977.0,1930.0,3973873.0,
1029.0,1635.0,1979.0,1928.0,3973876.0,
1027.0,1630.0,1980.0,1931.0,3973880.0,
1028.0,1630.0,1977.0,1932.0,3973884.0,
1029.0,1627.0,1978.0,1933.0,3973887.0,
1028.0,1629.0,1976.0,1938.0,3973891.0,
1025.0,1628.0,1975.0,1939.0,3973894.0,
1027.0,1630.0,1974.0,1951.0,3973898.0,
1027.0,1627.0,1974.0,1944.0,3973902.0,
1028.0,1633.0,1973.0,1957.0,3973905.0,
1028.0,1629.0,1975.0,1959.0,3973909.0,
1029.0,1631.0,1976.0,1967.0,3973913.0,
1027.0,1630.0,1974.0,1972.0,3973916.0,
1027.0,1631.0,1976.0,1977.0,3973920.0,
1029.0,1629.0,1974.0,1985.0,3973924.0,
1029.0,1630.0,1975.0,1991.0,3973927.0,
1031.0,1629.0,1975.0,1999.0,3973931.0,
1027.0,1630.0,1975.0,2007.0,3973934.0,
1027.0,1631.0,1975.0,2014.0,3973938.0,
1028.0,1629.0,1974.0,2024.0,3973942.0,
1028.0,1629.0,1974.0,2032.0,3973945.0,
1028.0,1631.0,1978.0,2038.0,3973949.0,
1028.0,1629.0,1979.0,2048.0,3973953.0,
1028.0,1625.0,1983.0,2054.0,3973956.0,
1029.0,1630.0,1985.0,2064.0,3973960.0,
1027.0,1628.0,1988.0,2076.0,3973964.0,
1028.0,1627.0,1992.0,2085.0,3973967.0,
1028.0,1629.0,2003.0,2096.0,3973971.0,
1028.0,1627.0,2002.0,2106.0,3973974.0,
1028.0,1627.0,2006.0,2115.0,3973978.0,
1026.0,1628.0,2013.0,2127.0,3973982.0,
1029.0,1627.0,2021.0,2136.0,3973985.0,
1028.0,1626.0,2027.0,2146.0,3973989.0,
1027.0,1627.0,2039.0,2154.0,3973993.0,
1028.0,1629.0,2045.0,2165.0,3973996.0,
1028.0,1628.0,2055.0,2162.0,3974000.0,
1026.0,1627.0,2065.0,2175.0,3974004.0,
1028.0,1630.0,2072.0,2180.0,3974007.0,
1027.0,1630.0,2081.0,2181.0,3974011.0,
1028.0,1628.0,2090.0,2187.0,3974014.0,
1027.0,1629.0,2101.0,2190.0,3974018.0,
1028.0,1627.0,2113.0,2190.0,3974022.0,
1027.0,1628.0,2112.0,2188.0,3974025.0,
1028.0,1626.0,2121.0,2189.0,3974029.0,
1028.0,1628.0,2123.0,2184.0,3974033.0,
1028.0,1628.0,2130.0,2185.0,3974036.0,
1028.0,1626.0,2139.0,2188.0,3974040.0,
1029.0,1627.0,2146.0,2188.0,3974043.0,
1029.0,1626.0,2153.0,2189.0,3974047.0,
1028.0,1627.0,2156.0,2187.0,3974051.0,
1028.0,1627.0,2161.0,2189.0,3974054.0,
1028.0,1627.0,2167.0,2191.0,3974058.0,
1027.0,1627.0,2170.0,2187.0,3974062.0,
1028.0,1628.0,2177.0,2188.0,3974065.0,
1028.0,1627.0,2176.0,2189.0,3974069.0,
1028.0,1628.0,2182.0,2187.0,3974073.0,
1027.0,1628.0,2181.0,2181.0,3974076.0,
1020.0,1627.0,2185.0,2182.0,3974080.0,
1027.0,1627.0,2187.0,2179.0,3974083.0,
1027.0,1628.0,2190.0,2176.0,3974087.0,
1028.0,1626.0,2188.0,2170.0,3974091.0,
1028.0,1627.0,2190.0,2166.0,3974094.0,
1028.0,1627.0,2190.0,2162.0,3974098.0,
1026.0,1628.0,2191.0,2157.0,3974102.0,
1028.0,1629.0,2191.0,2157.0,3974105.0,
1024.0,1627.0,2189.0,2151.0,3974109.0,
1028.0,1623.0,2191.0,2148.0,3974113.0,
1028.0,1627.0,2193.0,2143.0,3974116.0,
1028.0,1627.0,2198.0,2143.0,3974120.0,
1027.0,1627.0,2194.0,2138.0,3974123.0,
1027.0,1626.0,2193.0,2136.0,3974127.0,
1028.0,1627.0,2196.0,2133.0,3974131.0,
1028.0,1629.0,2193.0,2128.0,3974134.0,
1027.0,1627.0,2194.0,2122.0,3974138.0,
1027.0,1625.0,2193.0,2118.0,3974142.0,
1027.0,1624.0,2194.0,2116.0,3974145.0,
1029.0,1627.0,2190.0,2104.0,3974149.0,
1029.0,1627.0,2185.0,2100.0,3974152.0,
1027.0,1627.0,2181.0,2092.0,3974156.0,
1029.0,1628.0,2180.0,2087.0,3974160.0,
1028.0,1626.0,2177.0,2084.0,3974163.0,
1028.0,1627.0,2175.0,2076.0,3974167.0,
1028.0,1624.0,2171.0,2073.0,3974171.0,
1027.0,1625.0,2167.0,2066.0,3974174.0,
1027.0,1626.0,2163.0,2061.0,3974178.0,
1025.0,1625.0,2160.0,2058.0,3974182.0,
1027.0,1629.0,2153.0,2054.0,3974185.0,
1028.0,1626.0,2147.0,2051.0,3974189.0,
1027.0,1626.0,2142.0,2045.0,3974192.0,
1028.0,1626.0,2136.0,2044.0,3974196.0,
1021.0,1625.0,2129.0,2044.0,3974200.0,
1027.0,1625.0,2125.0,2041.0,3974203.0,
1025.0,1626.0,2117.0,2040.0,3974207.0,
1027.0,1625.0,2115.0,2038.0,3974211.0,
1026.0,1624.0,2113.0,2036.0,3974214.0,
1027.0,1626.0,2115.0,2035.0,3974218.0,
1032.0,1625.0,2103.0,2033.0,3974222.0,
1028.0,1626.0,2102.0,2030.0,3974225.0,
1026.0,1626.0,2103.0,2030.0,3974229.0,
1026.0,1625.0,2095.0,2027.0,3974232.0,
1028.0,1625.0,2093.0,2028.0,3974236.0,
1028.0,1626.0,2089.0,2030.0,3974240.0,
1031.0,1624.0,2086.0,2028.0,3974243.0,
1027.0,1625.0,2083.0,2028.0,3974247.0,
1027.0,1623.0,2081.0,2028.0,3974251.0,
1027.0,1626.0,2079.0,2027.0,3974254.0,
1028.0,1624.0,2079.0,2026.0,3974258.0,
1027.0,1624.0,2076.0,2026.0,3974262.0,
1027.0,1626.0,2077.0,2024.0,3974265.0,
1027.0,1625.0,2075.0,2021.0,3974269.0,
1028.0,1625.0,2074.0,2020.0,3974272.0,
1028.0,1625.0,2072.0,2016.0,3974276.0,
1029.0,1624.0,2072.0,2015.0,3974280.0,
1027.0,1623.0,2071.0,2014.0,3974283.0,
1027.0,1626.0,2070.0,2011.0,3974287.0,
1027.0,1626.0,2070.0,2011.0,3974291.0,
1027.0,1626.0,2068.0,2008.0,3974294.0,
1026.0,1625.0,2072.0,2008.0,3974298.0,
1027.0,1624.0,2068.0,2011.0,3974302.0,
1021.0,1625.0,2069.0,2007.0,3974305.0,
1028.0,1627.0,2066.0,2009.0,3974309.0,
1027.0,1626.0,2067.0,2010.0,3974312.0,
1028.0,1626.0,2068.0,2008.0,3974316.0,
1028.0,1625.0,2069.0,2007.0,3974320.0,
1027.0,1627.0,2069.0,2007.0,3974323.0,
1027.0,1628.0,2072.0,2005.0,3974327.0,
1026.0,1624.0,2074.0,2005.0,3974331.0,
1032.0,1624.0,2074.0,2002.0,3974334.0,
1027.0,1625.0,2077.0,2000.0,3974338.0,
1029.0,1625.0,2076.0,1997.0,3974341.0,
1029.0,1624.0,2078.0,1996.0,3974345.0,
1028.0,1625.0,2075.0,1993.0,3974349.0,
1027.0,1623.0,2076.0,1989.0,3974352.0,
1029.0,1626.0,2075.0,1987.0,3974356.0,
1027.0,1625.0,2075.0,1988.0,3974360.0,
1028.0,1623.0,2072.0,1986.0,3974363.0,
1026.0,1622.0,2070.0,1983.0,3974367.0,
1034.0,1624.0,2071.0,1986.0,3974371.0,
1027.0,1624.0,2071.0,1984.0,3974374.0,
1027.0,1624.0,2068.0,1984.0,3974378.0,
1027.0,1624.0,2066.0,1984.0,3974381.0,
1028.0,1625.0,2062.0,1988.0,3974385.0,
1026.0,1626.0,2063.0,1988.0,3974389.0,
1028.0,1623.0,2059.0,1988.0,3974392.0,
1028.0,1624.0,2059.0,1987.0,3974396.0,
1028.0,1624.0,2059.0,1989.0,3974400.0,
1026.0,1624.0,2056.0,1990.0,3974403.0,
1027.0,1624.0,2054.0,1993.0,3974407.0,
1027.0,1624.0,2054.0,1996.0,3974411.0,
1027.0,1629.0,2048.0,1993.0,3974414.0,
1028.0,1623.0,2052.0,1993.0,3974418.0,
1024.0,1623.0,2046.0,1990.0,3974421.0,
1028.0,1626.0,2040.0,1988.0,3974425.0,
1027.0,1622.0,2039.0,1986.0,3974429.0,
1027.0,1623.0,2035.0,1991.0,3974432.0,
1028.0,1622.0,2034.0,1980.0,3974436.0,
1028.0,1623.0,2032.0,1980.0,3974440.0,
1026.0,1625.0,2029.0,1977.0,3974443.0,
1029.0,1622.0,2029.0,1975.0,3974447.0,
1028.0,1623.0,2026.0,1977.0,3974451.0,
1028.0,1622.0,2023.0,1970.0,3974454.0,
1027.0,1623.0,2023.0,1973.0,3974458.0,
1026.0,1622.0,2022.0,1967.0,3974461.0,
1026.0,1622.0,2020.0,1965.0,3974465.0,
1027.0,1623.0,2022.0,1965.0,3974469.0,
1027.0,1623.0,2020.0,1964.0,3974472.0,
1030.0,1622.0,2024.0,1961.0,3974476.0,
1030.0,1623.0,2021.0,1959.0,3974480.0,
1028.0,1624.0,2022.0,1956.0,3974483.0,
1028.0,1624.0,2021.0,1954.0,3974487.0,
1028.0,1621.0,2020.0,1956.0,3974490.0,
1028.0,1623.0,2019.0,1952.0,3974494.0,
1028.0,1623.0,2019.0,1952.0,3974498.0,
1027.0,1621.0,2019.0,1953.0,3974501.0,
1027.0,1620.0,2019.0,1953.0,3974505.0,
1026.0,1622.0,2021.0,1952.0,3974509.0,
1027.0,1624.0,2017.0,1953.0,3974512.0,
1027.0,1623.0,2015.0,1951.0,3974516.0,
1027.0,1621.0,2011.0,1952.0,3974520.0,
1027.0,1625.0,2007.0,1950.0,3974523.0,
1027.0,1622.0,2006.0,1953.0,3974527.0,
1027.0,1623.0,2002.0,1952.0,3974530.0,
1027.0,1625.0,2000.0,1951.0,3974534.0,
1028.0,1626.0,2001.0,1956.0,3974538.0,
1027.0,1621.0,1998.0,1955.0,3974541.0,
1027.0,1620.0,1995.0,1962.0,3974545.0,
1026.0,1621.0,1995.0,1964.0,3974549.0,
1026.0,1622.0,1992.0,1962.0,3974552.0,
1027.0,1621.0,1990.0,1965.0,3974556.0,
1027.0,1620.0,1988.0,1967.0,3974560.0,
1026.0,1622.0,1985.0,1965.0,3974563.0,
1028.0,1621.0,1985.0,1964.0,3974567.0,
1028.0,1621.0,1984.0,1963.0,3974570.0,
1027.0,1622.0,1981.0,1960.0,3974574.0,
1027.0,1622.0,1980.0,1959.0,3974578.0,
1027.0,1619.0,1981.0,1961.0,3974581.0,
1028.0,1621.0,1978.0,1960.0,3974585.0,
1027.0,1622.0,1977.0,1961.0,3974589.0,
1027.0,1630.0,1976.0,1961.0,3974592.0,
1028.0,1620.0,1976.0,1958.0,3974596.0,
1027.0,1623.0,1980.0,1958.0,3974600.0,
1027.0,1623.0,1978.0,1961.0,3974603.0,
1028.0,1620.0,1977.0,1960.0,3974607.0,
1029.0,1620.0,1976.0,1958.0,3974610.0,
1026.0,1621.0,1977.0,1962.0,3974614.0,
1027.0,1621.0,1980.0,1962.0,3974618.0,
1028.0,1621.0,1980.0,1963.0,3974621.0,
1028.0,1622.0,1983.0,1965.0,3974625.0,
1027.0,1623.0,1986.0,1964.0,3974629.0,
1026.0,1621.0,1987.0,1966.0,3974632.0,
1029.0,1623.0,1990.0,1968.0,3974636.0,
1028.0,1622.0,1992.0,1970.0,3974639.0,
1027.0,1622.0,1993.0,1976.0,3974643.0,
1028.0,1622.0,1994.0,1981.0,3974647.0,
1027.0,1622.0,1992.0,1989.0,3974650.0,
1027.0,1624.0,1991.0,1995.0,3974654.0,
1027.0,1621.0,1988.0,2005.0,3974658.0,
1027.0,1622.0,1987.0,2014.0,3974661.0,
1027.0,1623.0,1989.0,2023.0,3974665.0,
1026.0,1622.0,1989.0,2031.0,3974669.0,
1027.0,1622.0,1987.0,2039.0,3974672.0,
1028.0,1623.0,1986.0,2051.0,3974676.0,
1027.0,1622.0,1992.0,2059.0,3974679.0,
1027.0,1624.0,1994.0,2072.0,3974683.0,
1027.0,1624.0,1997.0,2081.0,3974687.0,
1027.0,1623.0,1999.0,2092.0,3974690.0,
1028.0,1623.0,2004.0,2099.0,3974694.0,
1027.0,1624.0,2011.0,2101.0,3974698.0,
1028.0,1624.0,2015.0,2117.0,3974701.0,
1028.0,1623.0,2018.0,2125.0,3974705.0,
1025.0,1623.0,2026.0,2128.0,3974709.0,
1027.0,1625.0,2032.0,2135.0,3974712.0,
1028.0,1624.0,2040.0,2143.0,3974716.0,
1028.0,1623.0,2046.0,2150.0,3974719.0,
1026.0,1624.0,2048.0,2153.0,3974723.0,
1029.0,1624.0,2065.0,2159.0,3974727.0,
1027.0,1624.0,2068.0,2162.0,3974730.0,
1029.0,1624.0,2076.0,2163.0,3974734.0,
1027.0,1625.0,2084.0,2166.0,3974738.0,
1028.0,1625.0,2090.0,2167.0,3974741.0,
1027.0,1627.0,2098.0,2167.0,3974745.0,
1029.0,1625.0,2104.0,2166.0,3974749.0,
1028.0,1623.0,2110.0,2168.0,3974752.0,
1027.0,1624.0,2116.0,2171.0,3974756.0,
1028.0,1630.0,2123.0,2169.0,3974759.0,
1027.0,1624.0,2131.0,2170.0,3974763.0,
1027.0,1627.0,2139.0,2173.0,3974767.0,
1027.0,1622.0,2143.0,2171.0,3974770.0,
1027.0,1626.0,2152.0,2174.0,3974774.0,
1028.0,1626.0,2155.0,2172.0,3974778.0,
1027.0,1624.0,2163.0,2172.0,3974781.0,
1028.0,1625.0,2166.0,2172.0,3974785.0,
1030.0,1624.0,2171.0,2171.0,3974789.0,
1028.0,1625.0,2176.0,2172.0,3974792.0,
1027.0,1625.0,2180.0,2172.0,3974796.0,
1029.0,1625.0,2181.0,2173.0,3974799.0,
1027.0,1624.0,2183.0,2172.0,3974803.0,
1027.0,1626.0,2185.0,2174.0,3974807.0,
1028.0,1626.0,2187.0,2174.0,3974810.0,
1027.0,1624.0,2192.0,2174.0,3974814.0,
1035.0,1625.0,2193.0,2170.0,3974818.0,
1028.0,1621.0,2195.0,2168.0,3974821.0,
1028.0,1627.0,2198.0,2163.0,3974825.0,
1026.0,1626.0,2201.0,2157.0,3974828.0,
1027.0,1626.0,2201.0,2152.0,3974832.0,
1023.0,1623.0,2201.0,2151.0,3974836.0,
1028.0,1625.0,2200.0,2147.0,3974839.0,
1026.0,1624.0,2199.0,2143.0,3974843.0,
1029.0,1623.0,2201.0,2139.0,3974847.0,
1027.0,1625.0,2200.0,2136.0,3974850.0,
1028.0,1624.0,2195.0,2135.0,3974854.0,
1028.0,1623.0,2200.0,2130.0,3974858.0,
1028.0,1624.0,2200.0,2130.0,3974861.0,
1028.0,1628.0,2197.0,2129.0,3974865.0,
1029.0,1624.0,2192.0,2129.0,3974868.0,
1027.0,1625.0,2193.0,2127.0,3974872.0,
1029.0,1625.0,2190.0,2126.0,3974876.0,
1027.0,1625.0,2187.0,2124.0,3974879.0,
1027.0,1624.0,2183.0,2129.0,3974883.0,
1027.0,1624.0,2179.0,2123.0,3974887.0,
1027.0,1624.0,2177.0,2121.0,3974890.0,
1028.0,1625.0,2175.0,2119.0,3974894.0,
1032.0,1624.0,2170.0,2117.0,3974898.0,
1027.0,1623.0,2170.0,2115.0,3974901.0,
1030.0,1624.0,2165.0,2114.0,3974905.0,
1027.0,1620.0,2161.0,2110.0,3974908.0,
1028.0,1623.0,2158.0,2105.0,3974912.0,
1028.0,1622.0,2157.0,2100.0,3974916.0,
1027.0,1622.0,2153.0,2095.0,3974919.0,
1028.0,1622.0,2148.0,2089.0,3974923.0,
1028.0,1619.0,2144.0,2093.0,3974927.0,
1028.0,1621.0,2136.0,2084.0,3974930.0,
1025.0,1623.0,2133.0,2084.0,3974934.0,
1028.0,1622.0,2128.0,2079.0,3974938.0,
1027.0,1624.0,2124.0,2073.0,3974941.0,
1027.0,1623.0,2117.0,2071.0,3974945.0,
1027.0,1620.0,2115.0,2066.0,3974948.0,
1028.0,1624.0,2116.0,2064.0,3974952.0,
1027.0,1624.0,2110.0,2059.0,3974956.0,
1028.0,1624.0,2107.0,2054.0,3974959.0,
1028.0,1623.0,2105.0,2052.0,3974963.0,
1027.0,1622.0,2104.0,2049.0,3974967.0,
1027.0,1622.0,2103.0,2047.0,3974970.0,
1028.0,1618.0,2103.0,2045.0,3974974.0,
1027.0,1624.0,2104.0,2041.0,3974977.0,
1029.0,1622.0,2098.0,2037.0,3974981.0,
1027.0,1625.0,2105.0,2034.0,3974985.0,
1028.0,1625.0,2106.0,2032.0,3974988.0,
1027.0,1624.0,2106.0,2028.0,3974992.0,
1028.0,1624.0,2106.0,2025.0,3974996.0,
1029.0,1624.0,2105.0,2021.0,3974999.0,
1030.0,1624.0,2105.0,2020.0,3975003.0,
1024.0,1625.0,2105.0,2018.0,3975007.0,
1028.0,1628.0,2102.0,2022.0,3975010.0,
1028.0,1623.0,2099.0,2019.0,3975014.0,
1027.0,1626.0,2092.0,2024.0,3975017.0,
1027.0,1624.0,2093.0,2021.0,3975021.0,
1028.0,1627.0,2089.0,2020.0,3975025.0,
1028.0,1628.0,2087.0,2018.0,3975028.0,
1028.0,1624.0,2084.0,2017.0,3975032.0,
1028.0,1623.0,2084.0,2015.0,3975036.0,
1028.0,1626.0,2081.0,2012.0,3975039.0,
1027.0,1625.0,2083.0,2013.0,3975043.0,
1027.0,1626.0,2081.0,2008.0,3975047.0,
1027.0,1625.0,2079.0,2009.0,3975050.0,
1030.0,1625.0,2084.0,2005.0,3975054.0,
1029.0,1623.0,2075.0,2006.0,3975057.0,
1026.0,1623.0,2074.0,2004.0,3975061.0,
1034.0,1623.0,2071.0,2004.0,3975065.0,
1027.0,1621.0,2069.0,2007.0,3975068.0,
1035.0,1623.0,2071.0,2008.0,3975072.0,
1028.0,1625.0,2066.0,2008.0,3975076.0,
1028.0,1624.0,2065.0,2006.0,3975079.0,
1027.0,1625.0,2062.0,2008.0,3975083.0,
1028.0,1624.0,2062.0,2005.0,3975087.0,
1028.0,1626.0,2058.0,2004.0,3975090.0,
1028.0,1626.0,2057.0,2006.0,3975094.0,
1028.0,1622.0,2056.0,2006.0,3975097.0,
1028.0,1625.0,2059.0,2006.0,3975101.0,
1028.0,1623.0,2054.0,2005.0,3975105.0,
1027.0,1620.0,2052.0,2001.0,3975108.0,
1028.0,1624.0,2050.0,2004.0,3975112.0,
1027.0,1629.0,2047.0,2001.0,3975116.0,
1035.0,1626.0,2046.0,2001.0,3975119.0,
1027.0,1624.0,2044.0,1995.0,3975123.0,
1027.0,1629.0,2041.0,1998.0,3975126.0,
1028.0,1624.0,2042.0,1995.0,3975130.0,
1027.0,1625.0,2042.0,1992.0,3975134.0,
1026.0,1624.0,2044.0,1988.0,3975137.0,
1027.0,1627.0,2042.0,1986.0,3975141.0,
1028.0,1627.0,2040.0,1981.0,3975145.0,
1027.0,1625.0,2040.0,1980.0,3975148.0,
1027.0,1627.0,2038.0,1975.0,3975152.0,
1028.0,1624.0,2037.0,1974.0,3975156.0,
1028.0,1626.0,2039.0,1969.0,3975159.0,
1028.0,1625.0,2036.0,1962.0,3975163.0,
1028.0,1627.0,2037.0,1963.0,3975166.0,
1028.0,1626.0,2035.0,1959.0,3975170.0,
1028.0,1625.0,2035.0,1955.0,3975174.0,
1027.0,1627.0,2036.0,1955.0,3975177.0,
1028.0,1627.0,2038.0,1952.0,3975181.0,
1028.0,1625.0,2038.0,1952.0,3975185.0,
1028.0,1625.0,2039.0,1952.0,3975188.0,
1027.0,1625.0,2040.0,1952.0,3975192.0,
1030.0,1625.0,2033.0,1952.0,3975196.0,
1027.0,1624.0,2041.0,1952.0,3975199.0,
1028.0,1624.0,2039.0,1956.0,3975203.0,
1027.0,1625.0,2039.0,1954.0,3975206.0,
1028.0,1625.0,2037.0,1957.0,3975210.0,
1031.0,1632.0,2034.0,1958.0,3975214.0,
1027.0,1625.0,2031.0,1958.0,3975217.0,
1028.0,1625.0,2031.0,1959.0,3975221.0,
1027.0,1624.0,2032.0,1959.0,3975225.0,
1029.0,1627.0,2029.0,1958.0,3975228.0,
1027.0,1625.0,2026.0,1958.0,3975232.0,
1027.0,1627.0,2028.0,1957.0,3975236.0,
1026.0,1627.0,2028.0,1956.0,3975239.0,
1027.0,1626.0,2026.0,1956.0,3975243.0,
1027.0,1626.0,2025.0,1954.0,3975246.0,
1025.0,1624.0,2023.0,1954.0,3975250.0,
1027.0,1624.0,2023.0,1954.0,3975254.0,
1023.0,1623.0,2018.0,1949.0,3975257.0,
1029.0,1627.0,2017.0,1951.0,3975261.0,
1028.0,1624.0,2016.0,1951.0,3975265.0,
1027.0,1624.0,2015.0,1950.0,3975268.0,
1029.0,1625.0,2011.0,1946.0,3975272.0,
1029.0,1625.0,2009.0,1945.0,3975275.0,
1027.0,1625.0,2005.0,1941.0,3975279.0,
1028.0,1625.0,2005.0,1943.0,3975283.0,
1027.0,1624.0,2000.0,1940.0,3975286.0,
1028.0,1624.0,1997.0,1938.0,3975290.0,
1029.0,1624.0,1991.0,1941.0,3975294.0,
1028.0,1624.0,1985.0,1941.0,3975297.0,
1028.0,1625.0,1989.0,1941.0,3975301.0,
1027.0,1626.0,1984.0,1940.0,3975305.0,
1027.0,1624.0,1987.0,1942.0,3975308.0,
1028.0,1631.0,1984.0,1941.0,3975312.0,
1022.0,1627.0,1982.0,1945.0,3975315.0,
1028.0,1627.0,1979.0,1949.0,3975319.0,
1022.0,1625.0,1978.0,1958.0,3975323.0,
1028.0,1625.0,1977.0,1957.0,3975326.0,
1033.0,1626.0,1973.0,1958.0,3975330.0,
1026.0,1626.0,1971.0,1958.0,3975334.0,
1028.0,1626.0,1973.0,1962.0,3975337.0,
1027.0,1626.0,1974.0,1967.0,3975341.0,
1027.0,1625.0,1972.0,1969.0,3975345.0,
1026.0,1626.0,1971.0,1973.0,3975348.0,
1026.0,1628.0,1973.0,1977.0,3975352.0,
1029.0,1626.0,1973.0,1976.0,3975355.0,
1031.0,1626.0,1974.0,1978.0,3975359.0,
1027.0,1629.0,1973.0,1978.0,3975363.0,
1027.0,1627.0,1976.0,1983.0,3975366.0,
1028.0,1627.0,1977.0,1988.0,3975370.0,
1025.0,1627.0,1978.0,1991.0,3975374.0,
1029.0,1627.0,1978.0,1995.0,3975377.0,
1027.0,1628.0,1979.0,2000.0,3975381.0,
1027.0,1628.0,1978.0,2005.0,3975385.0,
1028.0,1627.0,1978.0,2009.0,3975388.0,
1028.0,1627.0,1980.0,2014.0,3975392.0,
1027.0,1626.0,1984.0,2021.0,3975395.0,
1027.0,1628.0,1984.0,2023.0,3975399.0,
1028.0,1627.0,1988.0,2030.0,3975403.0,
1027.0,1623.0,1988.0,2039.0,3975406.0,
1027.0,1633.0,1993.0,2045.0,3975410.0,
1028.0,1630.0,2000.0,2048.0,3975414.0,
1028.0,1630.0,2004.0,2053.0,3975417.0,
1028.0,1627.0,2008.0,2058.0,3975421.0,
1028.0,1628.0,2011.0,2063.0,3975424.0,
1026.0,1627.0,2014.0,2066.0,3975428.0,
1027.0,1628.0,2022.0,2068.0,3975432.0,
1027.0,1629.0,2025.0,2072.0,3975435.0,
1028.0,1627.0,2030.0,2072.0,3975439.0,
1027.0,1627.0,2032.0,2075.0,3975443.0,
1027.0,1629.0,2036.0,2076.0,3975446.0,
1027.0,1630.0,2043.0,2081.0,3975450.0,
1028.0,1628.0,2051.0,2083.0,3975454.0,
1027.0,1626.0,2057.0,2087.0,3975457.0,
1029.0,1627.0,2064.0,2089.0,3975461.0,
1028.0,1628.0,2071.0,2093.0,3975464.0,
1026.0,1627.0,2079.0,2096.0,3975468.0,
1027.0,1627.0,2087.0,2099.0,3975472.0,
1027.0,1627.0,2096.0,2104.0,3975475.0,
1027.0,1627.0,2101.0,2107.0,3975479.0,
1028.0,1624.0,2113.0,2112.0,3975483.0,
1028.0,1628.0,2115.0,2116.0,3975486.0,
1027.0,1626.0,2125.0,2117.0,3975490.0,
1028.0,1625.0,2132.0,2122.0,3975494.0,
1028.0,1627.0,2139.0,2128.0,3975497.0,
1028.0,1626.0,2146.0,2131.0,3975501.0,
1028.0,1626.0,2156.0,2137.0,3975504.0,
1029.0,1624.0,2161.0,2139.0,3975508.0,
1027.0,1626.0,2166.0,2142.0,3975512.0,
1027.0,1625.0,2173.0,2148.0,3975515.0,
1027.0,1625.0,2177.0,2150.0,3975519.0,
1029.0,1625.0,2183.0,2155.0,3975523.0,
1027.0,1624.0,2189.0,2160.0,3975526.0,
1028.0,1624.0,2194.0,2161.0,3975530.0,
1027.0,1625.0,2198.0,2162.0,3975534.0,
1027.0,1624.0,2197.0,2158.0,3975537.0,
1029.0,1625.0,2203.0,2158.0,3975541.0,
1027.0,1623.0,2202.0,2157.0,3975544.0,
1028.0,1624.0,2205.0,2155.0,3975548.0,
1028.0,1625.0,2206.0,2152.0,3975552.0,
1028.0,1624.0,2208.0,2151.0,3975555.0,
1028.0,1627.0,2211.0,2149.0,3975559.0,
1026.0,1625.0,2210.0,2149.0,3975563.0,
1027.0,1623.0,2214.0,2146.0,3975566.0,
1029.0,1623.0,2216.0,2146.0,3975570.0,
1029.0,1624.0,2213.0,2144.0,3975573.0,
1028.0,1624.0,2215.0,2142.0,3975577.0,
1027.0,1624.0,2214.0,2141.0,3975581.0,
1028.0,1626.0,2215.0,2137.0,3975584.0,
1027.0,1623.0,2215.0,2137.0,3975588.0,
1025.0,1624.0,2212.0,2136.0,3975592.0,
1028.0,1625.0,2212.0,2133.0,3975595.0,
1028.0,1624.0,2209.0,2130.0,3975599.0,
1028.0,1622.0,2208.0,2128.0,3975603.0,
1026.0,1625.0,2203.0,2127.0,3975606.0,
1027.0,1624.0,2198.0,2124.0,3975610.0,
1028.0,1622.0,2196.0,2122.0,3975613.0,
1027.0,1619.0,2188.0,2115.0,3975617.0,
1030.0,1623.0,2185.0,2111.0,3975621.0,
1029.0,1622.0,2178.0,2109.0,3975624.0,
1027.0,1622.0,2175.0,2103.0,3975628.0,
1028.0,1620.0,2179.0,2099.0,3975632.0,
1027.0,1621.0,2169.0,2097.0,3975635.0,
1028.0,1622.0,2164.0,2092.0,3975639.0,
1027.0,1622.0,2158.0,2089.0,3975643.0,
1028.0,1622.0,2155.0,2084.0,3975646.0,
1028.0,1622.0,2150.0,2081.0,3975650.0,
1027.0,1622.0,2147.0,2077.0,3975653.0,
1027.0,1624.0,2144.0,2081.0,3975657.0,
1029.0,1623.0,2138.0,2068.0,3975661.0,
1027.0,1622.0,2136.0,2067.0,3975664.0,
1029.0,1623.0,2130.0,2065.0,3975668.0,
1027.0,1623.0,2128.0,2061.0,3975672.0,
1028.0,1621.0,2125.0,2056.0,3975675.0,
1027.0,1621.0,2121.0,2051.0,3975679.0,
1027.0,1622.0,2120.0,2055.0,3975683.0,
1023.0,1620.0,2117.0,2045.0,3975686.0,
1027.0,1621.0,2118.0,2042.0,3975690.0,
1028.0,1622.0,2114.0,2042.0,3975693.0,
1028.0,1621.0,2115.0,2041.0,3975697.0,
1026.0,1622.0,2107.0,2041.0,3975701.0,
1027.0,1624.0,2107.0,2040.0,3975704.0,
1027.0,1622.0,2104.0,2040.0,3975708.0,
1028.0,1621.0,2101.0,2040.0,3975712.0,
1027.0,1624.0,2102.0,2038.0,3975715.0,
1028.0,1621.0,2100.0,2036.0,3975719.0,
1028.0,1624.0,2099.0,2037.0,3975722.0,
1028.0,1622.0,2098.0,2036.0,3975726.0,
1028.0,1621.0,2096.0,2036.0,3975730.0,
1027.0,1620.0,2094.0,2036.0,3975733.0,
1028.0,1621.0,2096.0,2035.0,3975737.0,
1027.0,1620.0,2096.0,2039.0,3975741.0,
1028.0,1619.0,2095.0,2039.0,3975744.0,
1028.0,1622.0,2096.0,2042.0,3975748.0,
1029.0,1621.0,2099.0,2042.0,3975752.0,
1027.0,1618.0,2097.0,2042.0,3975755.0,
1027.0,1619.0,2099.0,2038.0,3975759.0,
1027.0,1622.0,2097.0,2047.0,3975762.0,
1028.0,1620.0,2094.0,2047.0,3975766.0,
1028.0,1621.0,2098.0,2048.0,3975770.0,
1027.0,1620.0,2098.0,2048.0,3975773.0,
1027.0,1622.0,2100.0,2049.0,3975777.0,
1027.0,1619.0,2098.0,2049.0,3975781.0,
1027.0,1617.0,2102.0,2047.0,3975784.0,
1027.0,1621.0,2102.0,2045.0,3975788.0,
1027.0,1619.0,2102.0,2043.0,3975792.0,
1027.0,1620.0,2103.0,2042.0,3975795.0,
1028.0,1620.0,2103.0,2043.0,3975799.0,
1026.0,1620.0,2103.0,2043.0,3975802.0,
1027.0,1621.0,2104.0,2042.0,3975806.0,
1028.0,1619.0,2102.0,2042.0,3975810.0,
1027.0,1619.0,2101.0,2038.0,3975813.0,
1029.0,1620.0,2102.0,2036.0,3975817.0,
1028.0,1620.0,2100.0,2038.0,3975821.0,
1027.0,1619.0,2099.0,2035.0,3975824.0,
1027.0,1619.0,2093.0,2034.0,3975828.0,
1029.0,1621.0,2091.0,2027.0,3975831.0,
1029.0,1619.0,2090.0,2029.0,3975835.0,
1027.0,1621.0,2087.0,2028.0,3975839.0,
1027.0,1617.0,2086.0,2022.0,3975842.0,
1028.0,1620.0,2082.0,2019.0,3975846.0,
1027.0,1620.0,2080.0,2015.0,3975850.0,
1027.0,1618.0,2079.0,2010.0,3975853.0,
1027.0,1615.0,2074.0,2007.0,3975857.0,
1029.0,1617.0,2073.0,2002.0,3975861.0,
1027.0,1619.0,2070.0,1999.0,3975864.0,
1026.0,1618.0,2066.0,1992.0,3975868.0,
1027.0,1616.0,2061.0,1994.0,3975871.0,
1027.0,1618.0,2058.0,1990.0,3975875.0,
1026.0,1620.0,2057.0,1988.0,3975879.0,
1028.0,1619.0,2052.0,1985.0,3975882.0,
1027.0,1617.0,2050.0,1984.0,3975886.0,
1027.0,1618.0,2047.0,1981.0,3975890.0,
1027.0,1617.0,2043.0,1980.0,3975893.0,
1026.0,1617.0,2039.0,1976.0,3975897.0,
1027.0,1617.0,2039.0,1976.0,3975901.0,
1028.0,1618.0,2036.0,1973.0,3975904.0,
1026.0,1616.0,2031.0,1972.0,3975908.0,
1027.0,1618.0,2028.0,1969.0,3975911.0,
1027.0,1626.0,2029.0,1967.0,3975915.0,
1026.0,1618.0,2027.0,1964.0,3975919.0,
1027.0,1619.0,2027.0,1963.0,3975922.0,
1027.0,1618.0,2022.0,1963.0,3975926.0,
1028.0,1618.0,2027.0,1961.0,3975930.0,
1027.0,1618.0,2026.0,1962.0,3975933.0,
1028.0,1616.0,2022.0,1960.0,3975937.0,
1025.0,1618.0,2023.0,1961.0,3975941.0,
1027.0,1619.0,2022.0,1962.0,3975944.0,
1026.0,1620.0,2024.0,1961.0,3975948.0,
1023.0,1620.0,2025.0,1964.0,3975951.0,
1027.0,1616.0,2024.0,1966.0,3975955.0,
1027.0,1619.0,2023.0,1964.0,3975959.0,
1028.0,1616.0,2023.0,1965.0,3975962.0,
1026.0,1620.0,2023.0,1962.0,3975966.0,
1027.0,1621.0,2024.0,1961.0,3975970.0,
1026.0,1616.0,2024.0,1958.0,3975973.0,
1028.0,1618.0,2024.0,1959.0,3975977.0,
1028.0,1617.0,2024.0,1960.0,3975980.0,
1028.0,1619.0,2026.0,1960.0,3975984.0,
1028.0,1617.0,2027.0,1959.0,3975988.0,
1027.0,1616.0,2026.0,1961.0,3975991.0,
1026.0,1617.0,2026.0,1963.0,3975995.0,
1024.0,1616.0,2027.0,1963.0,3975999.0,
1026.0,1618.0,2025.0,1967.0,3976002.0,
1027.0,1618.0,2025.0,1968.0,3976006.0,
1027.0,1619.0,2024.0,1974.0,3976010.0,
1026.0,1617.0,2023.0,1972.0,3976013.0,
1027.0,1617.0,2022.0,1970.0,3976017.0,
1028.0,1617.0,2022.0,1971.0,3976020.0,
1026.0,1616.0,2025.0,1971.0,3976024.0,
1027.0,1615.0,2023.0,1970.0,3976028.0,
1027.0,1617.0,2017.0,1971.0,3976031.0,
1027.0,1614.0,2020.0,1970.0,3976035.0,
1026.0,1616.0,2021.0,1969.0,3976039.0,
1026.0,1615.0,2020.0,1966.0,3976042.0,
1027.0,1617.0,2016.0,1965.0,3976046.0,
1026.0,1615.0,2015.0,1964.0,3976050.0,
1027.0,1615.0,2014.0,1959.0,3976053.0,
1028.0,1617.0,2015.0,1965.0,3976057.0,
1021.0,1616.0,2008.0,1965.0,3976060.0,
1029.0,1617.0,2007.0,1969.0,3976064.0,
1028.0,1617.0,2007.0,1969.0,3976068.0,
1027.0,1616.0,2005.0,1969.0,3976071.0,
1028.0,1617.0,2004.0,1971.0,3976075.0,
1026.0,1615.0,2003.0,1973.0,3976079.0,
1027.0,1616.0,2005.0,1975.0,3976082.0,
1027.0,1613.0,2006.0,1975.0,3976086.0,
1027.0,1613.0,2004.0,1975.0,3976090.0,
1026.0,1618.0,2008.0,1976.0,3976093.0,
1027.0,1620.0,2006.0,1976.0,3976097.0,
1026.0,1615.0,2004.0,1975.0,3976100.0,
1026.0,1616.0,2007.0,1975.0,3976104.0,
1027.0,1613.0,2006.0,1970.0,3976108.0,
1028.0,1617.0,2007.0,1975.0,3976111.0,
1025.0,1615.0,2006.0,1979.0,3976115.0,
1027.0,1616.0,2008.0,1977.0,3976119.0,
1026.0,1614.0,2005.0,1982.0,3976122.0,
1026.0,1614.0,2003.0,1984.0,3976126.0,
1028.0,1616.0,2002.0,2000.0,3976129.0,
1023.0,1615.0,2000.0,1993.0,3976133.0,
1026.0,1615.0,1998.0,1998.0,3976137.0,
1027.0,1617.0,1995.0,2000.0,3976140.0,
1027.0,1615.0,1997.0,2003.0,3976144.0,
1028.0,1614.0,1990.0,2008.0,3976148.0,
1027.0,1616.0,1989.0,2012.0,3976151.0,
1026.0,1617.0,1987.0,2017.0,3976155.0,
1027.0,1615.0,1984.0,2022.0,3976159.0,
1027.0,1616.0,1983.0,2027.0,3976162.0,
1026.0,1617.0,1983.0,2033.0,3976166.0,
1028.0,1617.0,1982.0,2037.0,3976169.0,
1027.0,1616.0,1982.0,2043.0,3976173.0,
1027.0,1616.0,1987.0,2045.0,3976177.0,
1027.0,1617.0,1987.0,2053.0,3976180.0,
1027.0,1615.0,1991.0,2056.0,3976184.0,
1027.0,1616.0,1995.0,2061.0,3976188.0,
1027.0,1616.0,1999.0,2068.0,3976191.0,
1026.0,1614.0,2006.0,2072.0,3976195.0,
1027.0,1615.0,2013.0,2077.0,3976199.0,
1028.0,1617.0,2017.0,2079.0,3976202.0,
1028.0,1614.0,2022.0,2082.0,3976206.0,
1027.0,1615.0,2028.0,2093.0,3976209.0,
1028.0,1617.0,2035.0,2101.0,3976213.0,
1026.0,1617.0,2044.0,2109.0,3976217.0,
1027.0,1617.0,2052.0,2118.0,3976220.0,
1027.0,1617.0,2059.0,2125.0,3976224.0,
1027.0,1617.0,2068.0,2133.0,3976228.0,
1028.0,1617.0,2079.0,2137.0,3976231.0,
1026.0,1617.0,2087.0,2142.0,3976235.0,
1027.0,1616.0,2094.0,2147.0,3976239.0,
1030.0,1616.0,2107.0,2152.0,3976242.0,
1027.0,1615.0,2110.0,2157.0,3976246.0,
1027.0,1616.0,2121.0,2161.0,3976249.0,
1027.0,1616.0,2129.0,2166.0,3976253.0,
1027.0,1617.0,2140.0,2172.0,3976257.0,
1027.0,1616.0,2145.0,2174.0,3976260.0,
1027.0,1617.0,2156.0,2178.0,3976264.0,
1025.0,1616.0,2159.0,2186.0,3976268.0,
1027.0,1616.0,2163.0,2191.0,3976271.0,
1027.0,1615.0,2167.0,2197.0,3976275.0,
1027.0,1617.0,2170.0,2200.0,3976278.0,
1028.0,1615.0,2175.0,2203.0,3976282.0,
1025.0,1616.0,2178.0,2203.0,3976286.0,
1025.0,1615.0,2181.0,2204.0,3976289.0,
1027.0,1613.0,2182.0,2203.0,3976293.0,
1027.0,1616.0,2189.0,2202.0,3976297.0,
1028.0,1616.0,2189.0,2202.0,3976300.0,
1027.0,1615.0,2190.0,2199.0,3976304.0,
1028.0,1615.0,2191.0,2208.0,3976308.0,
1026.0,1615.0,2191.0,2208.0,3976311.0,
1027.0,1618.0,2190.0,2209.0,3976315.0,
1028.0,1615.0,2193.0,2210.0,3976318.0,
1028.0,1616.0,2193.0,2210.0,3976322.0,
1027.0,1617.0,2197.0,2208.0,3976326.0,
1028.0,1616.0,2200.0,2208.0,3976329.0,
1027.0,1617.0,2199.0,2206.0,3976333.0,
1026.0,1615.0,2195.0,2203.0,3976337.0,
1027.0,1616.0,2197.0,2199.0,3976340.0,
1027.0,1615.0,2195.0,2197.0,3976344.0,
1027.0,1616.0,2193.0,2194.0,3976348.0,
1028.0,1615.0,2192.0,2189.0,3976351.0,
1021.0,1616.0,2191.0,2188.0,3976355.0,
1026.0,1618.0,2188.0,2185.0,3976358.0,
1026.0,1617.0,2188.0,2182.0,3976362.0,
1027.0,1615.0,2186.0,2181.0,3976366.0,
1028.0,1616.0,2186.0,2177.0,3976369.0,
1027.0,1615.0,2185.0,2173.0,3976373.0,
1027.0,1614.0,2186.0,2171.0,3976377.0,
1026.0,1616.0,2183.0,2160.0,3976380.0,
1027.0,1615.0,2182.0,2159.0,3976384.0,
1027.0,1616.0,2180.0,2152.0,3976388.0,
1027.0,1615.0,2179.0,2144.0,3976391.0,
1027.0,1614.0,2178.0,2137.0,3976395.0,
1027.0,1615.0,2176.0,2128.0,3976398.0,
1027.0,1616.0,2169.0,2118.0,3976402.0,
1025.0,1616.0,2169.0,2109.0,3976406.0,
1028.0,1617.0,2165.0,2103.0,3976409.0,
1026.0,1617.0,2160.0,2097.0,3976413.0,
1027.0,1617.0,2158.0,2095.0,3976417.0,
1027.0,1619.0,2158.0,2091.0,3976420.0,
1028.0,1616.0,2150.0,2087.0,3976424.0,
1028.0,1619.0,2148.0,2081.0,3976427.0,
1027.0,1616.0,2145.0,2081.0,3976431.0,
1026.0,1616.0,2143.0,2076.0,3976435.0,
1027.0,1617.0,2142.0,2078.0,3976438.0,
1027.0,1616.0,2137.0,2075.0,3976442.0,
1028.0,1618.0,2131.0,2073.0,3976446.0,
1027.0,1617.0,2130.0,2074.0,3976449.0,
1028.0,1619.0,2125.0,2072.0,3976453.0,
1030.0,1617.0,2123.0,2072.0,3976457.0,
1026.0,1617.0,2121.0,2073.0,3976460.0,
1026.0,1617.0,2117.0,2072.0,3976464.0,
1027.0,1618.0,2115.0,2071.0,3976467.0,
1027.0,1618.0,2111.0,2069.0,3976471.0,
1026.0,1618.0,2111.0,2068.0,3976475.0,
1027.0,1615.0,2107.0,2059.0,3976478.0,
1026.0,1619.0,2109.0,2064.0,3976482.0,
1027.0,1619.0,2105.0,2063.0,3976486.0,
1022.0,1618.0,2105.0,2059.0,3976489.0,
1026.0,1620.0,2104.0,2060.0,3976493.0,
1026.0,1618.0,2102.0,2059.0,3976497.0,
1031.0,1619.0,2102.0,2060.0,3976500.0,
1027.0,1620.0,2102.0,2060.0,3976504.0,
1026.0,1619.0,2103.0,2061.0,3976507.0,
1026.0,1618.0,2102.0,2062.0,3976511.0,
1026.0,1619.0,2102.0,2064.0,3976515.0,
1027.0,1618.0,2100.0,2066.0,3976518.0,
1028.0,1619.0,2101.0,2068.0,3976522.0,
1026.0,1619.0,2102.0,2069.0,3976526.0,
1026.0,1618.0,2103.0,2069.0,3976529.0,
1026.0,1619.0,2100.0,2066.0,3976533.0,
1027.0,1621.0,2098.0,2067.0,3976537.0,
1027.0,1618.0,2100.0,2065.0,3976540.0,
1027.0,1619.0,2097.0,2063.0,3976544.0,
1026.0,1620.0,2099.0,2061.0,3976547.0,
1027.0,1618.0,2100.0,2058.0,3976551.0,
1028.0,1625.0,2100.0,2057.0,3976555.0,
1025.0,1617.0,2099.0,2053.0,3976558.0,
1027.0,1618.0,2098.0,2055.0,3976562.0,
1027.0,1619.0,2096.0,2056.0,3976566.0,
1025.0,1618.0,2093.0,2053.0,3976569.0,
1027.0,1619.0,2092.0,2048.0,3976573.0,
1027.0,1620.0,2090.0,2047.0,3976576.0,
1027.0,1619.0,2089.0,2044.0,3976580.0,
1026.0,1620.0,2087.0,2041.0,3976584.0,
1028.0,1618.0,2087.0,2037.0,3976587.0,
1026.0,1621.0,2086.0,2036.0,3976591.0,
1027.0,1618.0,2083.0,2032.0,3976595.0,
1027.0,1620.0,2082.0,2029.0,3976598.0,
1027.0,1618.0,2079.0,2028.0,3976602.0,
1027.0,1619.0,2078.0,2024.0,3976606.0,
1026.0,1619.0,2079.0,2024.0,3976609.0,
1026.0,1618.0,2074.0,2026.0,3976613.0,
1027.0,1618.0,2070.0,2027.0,3976616.0,
1027.0,1618.0,2070.0,2028.0,3976620.0,
1028.0,1618.0,2069.0,2020.0,3976624.0,
1029.0,1619.0,2069.0,2030.0,3976627.0,
1026.0,1617.0,2066.0,2031.0,3976631.0,
1027.0,1618.0,2065.0,2031.0,3976635.0,
1027.0,1617.0,2061.0,2029.0,3976638.0,
1027.0,1620.0,2061.0,2028.0,3976642.0,
1026.0,1620.0,2060.0,2030.0,3976646.0,
1026.0,1615.0,2057.0,2031.0,3976649.0,
1023.0,1617.0,2054.0,2026.0,3976653.0,
1028.0,1619.0,2055.0,2025.0,3976656.0,
1026.0,1618.0,2055.0,2023.0,3976660.0,
1026.0,1617.0,2052.0,2021.0,3976664.0,
1026.0,1616.0,2053.0,2017.0,3976667.0,
1027.0,1618.0,2051.0,2010.0,3976671.0,
1027.0,1619.0,2056.0,2007.0,3976675.0,
1026.0,1618.0,2048.0,2002.0,3976678.0,
1027.0,1618.0,2046.0,1998.0,3976682.0,
1025.0,1619.0,2048.0,1995.0,3976686.0,
1019.0,1618.0,2047.0,1989.0,3976689.0,
1026.0,1618.0,2046.0,1989.0,3976693.0,
1026.0,1623.0,2045.0,1984.0,3976696.0,
1027.0,1619.0,2046.0,1987.0,3976700.0,
1026.0,1619.0,2042.0,1981.0,3976704.0,
1026.0,1619.0,2043.0,1982.0,3976707.0,
1028.0,1617.0,2043.0,1981.0,3976711.0,
1027.0,1620.0,2040.0,1984.0,3976715.0,
1026.0,1620.0,2039.0,1982.0,3976718.0,
1026.0,1619.0,2040.0,1983.0,3976722.0,
1026.0,1621.0,2038.0,1982.0,3976725.0,
1027.0,1618.0,2039.0,1983.0,3976729.0,
1027.0,1618.0,2038.0,1984.0,3976733.0,
1026.0,1619.0,2033.0,1988.0,3976736.0,
1026.0,1617.0,2031.0,1990.0,3976740.0,
1027.0,1618.0,2030.0,1992.0,3976744.0,
1027.0,1619.0,2029.0,1993.0,3976747.0,
1026.0,1621.0,2026.0,1996.0,3976751.0,
1027.0,1620.0,2023.0,1998.0,3976755.0,
1027.0,1619.0,2022.0,2001.0,3976758.0,
1026.0,1620.0,2016.0,2003.0,3976762.0,
1026.0,1620.0,2018.0,2004.0,3976765.0,
1028.0,1621.0,2015.0,2006.0,3976769.0,
1028.0,1618.0,2014.0,2007.0,3976773.0,
1026.0,1619.0,2015.0,2007.0,3976776.0,
1025.0,1619.0,2011.0,2008.0,3976780.0,
1027.0,1619.0,2012.0,2009.0,3976784.0,
1026.0,1618.0,2011.0,2012.0,3976787.0,
1026.0,1618.0,2011.0,2007.0,3976791.0,
1031.0,1617.0,2012.0,2008.0,3976795.0,
1026.0,1620.0,2010.0,2009.0,3976798.0,
1027.0,1618.0,2007.0,2008.0,3976802.0,
1026.0,1619.0,2006.0,2009.0,3976805.0,
1025.0,1618.0,2006.0,2008.0,3976809.0,
1026.0,1618.0,2004.0,2008.0,3976813.0,
1026.0,1618.0,1998.0,2009.0,3976816.0,
1026.0,1619.0,1998.0,2007.0,3976820.0,
1027.0,1618.0,1996.0,2007.0,3976824.0,
1029.0,1618.0,1992.0,2008.0,3976827.0,
1026.0,1618.0,1990.0,2006.0,3976831.0,
1025.0,1617.0,1991.0,2003.0,3976835.0,
1026.0,1616.0,1990.0,2001.0,3976838.0,
1025.0,1619.0,1992.0,1999.0,3976842.0,
1027.0,1619.0,1990.0,1997.0,3976845.0,
1026.0,1618.0,1992.0,1993.0,3976849.0,
1025.0,1616.0,1989.0,1990.0,3976853.0,
1026.0,1618.0,1988.0,1990.0,3976856.0,
1026.0,1618.0,1989.0,1989.0,3976860.0,
1027.0,1617.0,1991.0,1991.0,3976864.0,
1027.0,1618.0,1988.0,1987.0,3976867.0,
1027.0,1616.0,1987.0,1988.0,3976871.0,
1026.0,1618.0,1987.0,1987.0,3976875.0,
1024.0,1618.0,1988.0,1985.0,3976878.0,
1027.0,1618.0,1987.0,1985.0,3976882.0,
1027.0,1619.0,1986.0,1983.0,3976885.0,
1026.0,1618.0,1987.0,1986.0,3976889.0,
1029.0,1619.0,1985.0,1986.0,3976893.0,
1027.0,1618.0,1984.0,1982.0,3976896.0,
1027.0,1618.0,1984.0,1982.0,3976900.0,
1027.0,1618.0,1984.0,1987.0,3976904.0,
1027.0,1619.0,1984.0,1986.0,3976907.0,
1026.0,1619.0,1980.0,1985.0,3976911.0,
1027.0,1619.0,1981.0,1985.0,3976914.0,
1027.0,1620.0,1977.0,1988.0,3976918.0,
1027.0,1621.0,1980.0,1986.0,3976922.0,
1026.0,1620.0,1979.0,1995.0,3976925.0,
1027.0,1622.0,1979.0,1996.0,3976929.0,
1027.0,1622.0,1979.0,2000.0,3976933.0,
1026.0,1620.0,1979.0,2006.0,3976936.0,
1024.0,1621.0,1981.0,2006.0,3976940.0,
1026.0,1619.0,1982.0,2014.0,3976944.0,
1026.0,1621.0,1982.0,2018.0,3976947.0,
1025.0,1620.0,1984.0,2023.0,3976951.0,
1027.0,1619.0,1983.0,2030.0,3976954.0,
1027.0,1619.0,1985.0,2035.0,3976958.0,
1027.0,1618.0,1986.0,2040.0,3976962.0,
1027.0,1620.0,1992.0,2046.0,3976965.0,
1027.0,1620.0,1993.0,2058.0,3976969.0,
1026.0,1621.0,1998.0,2062.0,3976973.0,
1027.0,1619.0,2003.0,2071.0,3976976.0,
1026.0,1618.0,2005.0,2076.0,3976980.0,
1026.0,1620.0,2013.0,2083.0,3976984.0,
1026.0,1619.0,2018.0,2088.0,3976987.0,
1025.0,1620.0,2024.0,2091.0,3976991.0,
1027.0,1618.0,2031.0,2097.0,3976994.0,
1027.0,1619.0,2037.0,2104.0,3976998.0,
1026.0,1621.0,2047.0,2110.0,3977002.0,
1027.0,1619.0,2055.0,2117.0,3977005.0,
1027.0,1619.0,2070.0,2121.0,3977009.0,
1025.0,1620.0,2073.0,2126.0,3977013.0,
1026.0,1621.0,2081.0,2132.0,3977016.0,
1026.0,1620.0,2091.0,2138.0,3977020.0,
1027.0,1622.0,2098.0,2142.0,3977023.0,
1026.0,1622.0,2104.0,2150.0,3977027.0,
1027.0,1620.0,2114.0,2156.0,3977031.0,
1026.0,1621.0,2120.0,2163.0,3977034.0,
1026.0,1619.0,2129.0,2166.0,3977038.0,
1025.0,1620.0,2133.0,2176.0,3977042.0,
1026.0,1620.0,2142.0,2180.0,3977045.0,
1026.0,1619.0,2150.0,2182.0,3977049.0,
1026.0,1621.0,2156.0,2195.0,3977053.0,
1024.0,1621.0,2165.0,2190.0,3977056.0,
1032.0,1619.0,2170.0,2193.0,3977060.0,
1026.0,1621.0,2178.0,2192.0,3977063.0,
1025.0,1620.0,2185.0,2193.0,3977067.0,
1027.0,1621.0,2191.0,2194.0,3977071.0,
1025.0,1621.0,2197.0,2196.0,3977074.0,
1026.0,1621.0,2202.0,2200.0,3977078.0,
1026.0,1623.0,2207.0,2201.0,3977082.0,
1027.0,1622.0,2214.0,2205.0,3977085.0,
1026.0,1622.0,2215.0,2207.0,3977089.0,
1027.0,1621.0,2217.0,2212.0,3977093.0,
1026.0,1621.0,2219.0,2212.0,3977096.0,
1027.0,1621.0,2219.0,2213.0,3977100.0,
1024.0,1626.0,2221.0,2213.0,3977103.0,
1027.0,1621.0,2222.0,2212.0,3977107.0,
1027.0,1623.0,2224.0,2211.0,3977111.0,
1026.0,1621.0,2223.0,2210.0,3977114.0,
1026.0,1622.0,2223.0,2207.0,3977118.0,
1026.0,1620.0,2220.0,2204.0,3977122.0,
1026.0,1620.0,2219.0,2204.0,3977125.0,
1026.0,1617.0,2216.0,2202.0,3977129.0,
1027.0,1622.0,2216.0,2199.0,3977133.0,
1026.0,1623.0,2214.0,2201.0,3977136.0,
1027.0,1621.0,2210.0,2197.0,3977140.0,
1026.0,1623.0,2209.0,2196.0,3977143.0,
1027.0,1622.0,2207.0,2198.0,3977147.0,
1028.0,1622.0,2206.0,2194.0,3977151.0,
1027.0,1622.0,2204.0,2190.0,3977154.0,
1027.0,1623.0,2201.0,2187.0,3977158.0,
1027.0,1621.0,2202.0,2187.0,3977162.0,
1027.0,1622.0,2199.0,2180.0,3977165.0,
1028.0,1622.0,2199.0,2175.0,3977169.0,
1027.0,1621.0,2194.0,2170.0,3977173.0,
1027.0,1621.0,2192.0,2164.0,3977176.0,
1033.0,1621.0,2187.0,2159.0,3977180.0,
1027.0,1621.0,2183.0,2151.0,3977183.0,
1027.0,1620.0,2181.0,2142.0,3977187.0,
1027.0,1621.0,2175.0,2131.0,3977191.0,
1026.0,1621.0,2174.0,2126.0,3977194.0,
1027.0,1623.0,2168.0,2122.0,3977198.0,
1031.0,1621.0,2166.0,2115.0,3977202.0,
1026.0,1620.0,2162.0,2111.0,3977205.0,
1027.0,1620.0,2155.0,2109.0,3977209.0,
1027.0,1629.0,2155.0,2103.0,3977212.0,
1031.0,1622.0,2153.0,2100.0,3977216.0,
1025.0,1622.0,2151.0,2092.0,3977220.0,
1026.0,1620.0,2150.0,2088.0,3977223.0,
1020.0,1621.0,2145.0,2087.0,3977227.0,
1027.0,1623.0,2145.0,2081.0,3977231.0,
1026.0,1623.0,2142.0,2077.0,3977234.0,
1028.0,1624.0,2141.0,2074.0,3977238.0,
1026.0,1621.0,2137.0,2071.0,3977242.0,
1026.0,1619.0,2137.0,2072.0,3977245.0,
1025.0,1622.0,2130.0,2073.0,3977249.0,
1026.0,1621.0,2133.0,2073.0,3977252.0,
1026.0,1620.0,2129.0,2071.0,3977256.0,
1028.0,1621.0,2127.0,2071.0,3977260.0,
1025.0,1623.0,2126.0,2070.0,3977263.0,
1026.0,1617.0,2121.0,2070.0,3977267.0,
1027.0,1620.0,2117.0,2066.0,3977271.0,
1027.0,1620.0,2116.0,2062.0,3977274.0,
1025.0,1620.0,2112.0,2062.0,3977278.0,
1028.0,1619.0,2109.0,2061.0,3977282.0,
1026.0,1621.0,2106.0,2062.0,3977285.0,
1027.0,1620.0,2102.0,2060.0,3977289.0,
1026.0,1620.0,2102.0,2059.0,3977292.0,
1026.0,1622.0,2095.0,2058.0,3977296.0,
1028.0,1621.0,2096.0,2057.0,3977300.0,
1027.0,1621.0,2097.0,2056.0,3977303.0,
1025.0,1621.0,2094.0,2055.0,3977307.0,
1026.0,1620.0,2093.0,2056.0,3977311.0,
1027.0,1621.0,2092.0,2056.0,3977314.0,
1027.0,1624.0,2091.0,2052.0,3977318.0,
1026.0,1620.0,2091.0,2052.0,3977322.0,
1026.0,1620.0,2091.0,2050.0,3977325.0,
1029.0,1621.0,2089.0,2049.0,3977329.0,
1025.0,1620.0,2087.0,2047.0,3977332.0,
1027.0,1619.0,2088.0,2042.0,3977336.0,
1026.0,1621.0,2088.0,2041.0,3977340.0,
1027.0,1621.0,2086.0,2043.0,3977343.0,
1025.0,1620.0,2087.0,2042.0,3977347.0,
1026.0,1618.0,2087.0,2039.0,3977351.0,
1028.0,1620.0,2086.0,2038.0,3977354.0,
1027.0,1621.0,2084.0,2037.0,3977358.0,
1024.0,1620.0,2082.0,2037.0,3977361.0,
1028.0,1620.0,2079.0,2036.0,3977365.0,
1026.0,1621.0,2077.0,2037.0,3977369.0,
1025.0,1621.0,2077.0,2037.0,3977372.0,
1029.0,1620.0,2074.0,2035.0,3977376.0,
1025.0,1620.0,2072.0,2035.0,3977380.0,
1027.0,1620.0,2069.0,2035.0,3977383.0,
1026.0,1621.0,2066.0,2035.0,3977387.0,
1026.0,1623.0,2064.0,2030.0,3977391.0,
1026.0,1622.0,2058.0,2032.0,3977394.0,
1021.0,1621.0,2057.0,2033.0,3977398.0,
1026.0,1619.0,2056.0,2034.0,3977401.0,
1026.0,1618.0,2055.0,2032.0,3977405.0,
1026.0,1620.0,2052.0,2033.0,3977409.0,
1026.0,1621.0,2048.0,2026.0,3977412.0,
1026.0,1622.0,2046.0,2027.0,3977416.0,
1025.0,1620.0,2044.0,2028.0,3977420.0,
1027.0,1621.0,2043.0,2025.0,3977423.0,
1026.0,1621.0,2042.0,2024.0,3977427.0,
1026.0,1621.0,2046.0,2020.0,3977431.0,
1026.0,1621.0,2045.0,2020.0,3977434.0,
1026.0,1620.0,2040.0,2018.0,3977438.0,
1026.0,1621.0,2046.0,2021.0,3977441.0,
1027.0,1619.0,2045.0,2019.0,3977445.0,
1026.0,1621.0,2046.0,2019.0,3977449.0,
1026.0,1619.0,2048.0,2019.0,3977452.0,
1027.0,1623.0,2048.0,2019.0,3977456.0,
1026.0,1620.0,2046.0,2017.0,3977460.0,
1026.0,1620.0,2047.0,2015.0,3977463.0,
1026.0,1620.0,2045.0,2013.0,3977467.0,
1028.0,1619.0,2047.0,2010.0,3977471.0,
1027.0,1620.0,2043.0,2008.0,3977474.0,
1027.0,1619.0,2040.0,2005.0,3977478.0,
1026.0,1620.0,2041.0,2003.0,3977481.0,
1027.0,1620.0,2035.0,2000.0,3977485.0,
1027.0,1620.0,2038.0,1998.0,3977489.0,
1026.0,1621.0,2038.0,1996.0,3977492.0,
1026.0,1621.0,2038.0,1996.0,3977496.0,
1031.0,1621.0,2038.0,1992.0,3977500.0,
1026.0,1624.0,2036.0,1989.0,3977503.0,
1026.0,1620.0,2034.0,1989.0,3977507.0,
1027.0,1621.0,2033.0,1987.0,3977510.0,
1027.0,1620.0,2031.0,1985.0,3977514.0,
1020.0,1620.0,2032.0,1988.0,3977518.0,
1026.0,1615.0,2031.0,1985.0,3977521.0,
1026.0,1620.0,2028.0,1984.0,3977525.0,
1026.0,1620.0,2028.0,1988.0,3977529.0,
1026.0,1619.0,2027.0,1983.0,3977532.0,
1022.0,1621.0,2028.0,1980.0,3977536.0,
1025.0,1619.0,2026.0,1982.0,3977540.0,
1026.0,1621.0,2027.0,1977.0,3977543.0,
1026.0,1619.0,2023.0,1978.0,3977547.0,
1026.0,1618.0,2023.0,1977.0,3977550.0,
1024.0,1619.0,2017.0,1978.0,3977554.0,
1025.0,1620.0,2017.0,1979.0,3977558.0,
1027.0,1622.0,2016.0,1977.0,3977561.0,
1025.0,1621.0,2014.0,1975.0,3977565.0,
1027.0,1619.0,2009.0,1972.0,3977569.0,
1026.0,1619.0,2005.0,1970.0,3977572.0,
1025.0,1619.0,2001.0,1970.0,3977576.0,
1026.0,1620.0,2003.0,1969.0,3977580.0,
1026.0,1623.0,1997.0,1970.0,3977583.0,
1026.0,1621.0,1995.0,1970.0,3977587.0,
1026.0,1616.0,1993.0,1970.0,3977590.0,
1027.0,1617.0,1991.0,1970.0,3977594.0,
1026.0,1620.0,1990.0,1970.0,3977598.0,
1027.0,1617.0,1989.0,1972.0,3977601.0,
1025.0,1619.0,1987.0,1969.0,3977605.0,
1027.0,1619.0,1987.0,1971.0,3977609.0,
1026.0,1619.0,1985.0,1973.0,3977612.0,
1025.0,1618.0,1984.0,1974.0,3977616.0,
1028.0,1618.0,1985.0,1976.0,3977620.0,
1026.0,1617.0,1983.0,1974.0,3977623.0,
1026.0,1618.0,1988.0,1976.0,3977627.0,
1025.0,1617.0,1984.0,1977.0,3977630.0,
1026.0,1616.0,1985.0,1978.0,3977634.0,
1024.0,1616.0,1986.0,1981.0,3977638.0,
1027.0,1617.0,1985.0,1982.0,3977641.0,
1027.0,1616.0,1986.0,1980.0,3977645.0,
1034.0,1614.0,1984.0,1978.0,3977649.0,
1025.0,1617.0,1983.0,1979.0,3977652.0,
1027.0,1616.0,1981.0,1979.0,3977656.0,
1025.0,1616.0,1979.0,1981.0,3977660.0,
1026.0,1616.0,1978.0,1977.0,3977663.0,
1025.0,1616.0,1973.0,1975.0,3977667.0,
1027.0,1615.0,1973.0,1974.0,3977670.0,
1026.0,1615.0,1972.0,1970.0,3977674.0,
1027.0,1617.0,1969.0,1972.0,3977678.0,
1025.0,1614.0,1968.0,1971.0,3977681.0,
1025.0,1614.0,1964.0,1973.0,3977685.0,
1027.0,1615.0,1966.0,1976.0,3977689.0,
1025.0,1614.0,1964.0,1977.0,3977692.0,
1026.0,1614.0,1962.0,1977.0,3977696.0,
1026.0,1615.0,1960.0,1979.0,3977699.0,
1023.0,1614.0,1960.0,1978.0,3977703.0,
1026.0,1612.0,1958.0,1982.0,3977707.0,
1027.0,1614.0,1958.0,1983.0,3977710.0,
1024.0,1613.0,1960.0,1990.0,3977714.0,
1025.0,1615.0,1960.0,1996.0,3977718.0,
1025.0,1614.0,1961.0,2000.0,3977721.0,
1025.0,1613.0,1964.0,2004.0,3977725.0,
1026.0,1614.0,1966.0,2012.0,3977729.0,
1024.0,1615.0,1968.0,2018.0,3977732.0,
1025.0,1614.0,1969.0,2017.0,3977736.0,
1027.0,1616.0,1974.0,2031.0,3977739.0,
1025.0,1612.0,1974.0,2037.0,3977743.0,
1023.0,1614.0,1976.0,2044.0,3977747.0,
1026.0,1612.0,1977.0,2048.0,3977750.0,
1027.0,1613.0,1982.0,2053.0,3977754.0,
1026.0,1612.0,1983.0,2061.0,3977758.0,
1026.0,1616.0,1987.0,2069.0,3977761.0,
1027.0,1615.0,1996.0,2072.0,3977765.0,
1026.0,1614.0,1998.0,2078.0,3977769.0,
1027.0,1613.0,2003.0,2081.0,3977772.0,
1026.0,1614.0,2002.0,2084.0,3977776.0,
1026.0,1617.0,2012.0,2085.0,3977779.0,
1025.0,1615.0,2020.0,2087.0,3977783.0,
1025.0,1615.0,2023.0,2088.0,3977787.0,
1027.0,1616.0,2031.0,2092.0,3977790.0,
1027.0,1613.0,2037.0,2097.0,3977794.0,
1025.0,1617.0,2042.0,2098.0,3977798.0,
1028.0,1614.0,2053.0,2103.0,3977801.0,
1027.0,1616.0,2060.0,2106.0,3977805.0,
1025.0,1615.0,2066.0,2114.0,3977809.0,
1026.0,1617.0,2077.0,2117.0,3977812.0,
1026.0,1614.0,2082.0,2121.0,3977816.0,
1026.0,1615.0,2089.0,2124.0,3977819.0,
1026.0,1615.0,2094.0,2127.0,3977823.0,
1024.0,1616.0,2101.0,2130.0,3977827.0,
1025.0,1616.0,2104.0,2136.0,3977830.0,
1027.0,1616.0,2108.0,2136.0,3977834.0,
1027.0,1614.0,2108.0,2142.0,3977838.0,
1027.0,1619.0,2114.0,2145.0,3977841.0,
1027.0,1616.0,2116.0,2146.0,3977845.0,
1027.0,1616.0,2118.0,2150.0,3977848.0,
1026.0,1616.0,2121.0,2156.0,3977852.0,
1026.0,1618.0,2123.0,2164.0,3977856.0,
1026.0,1617.0,2125.0,2168.0,3977859.0,
1026.0,1617.0,2122.0,2168.0,3977863.0,
1026.0,1616.0,2126.0,2175.0,3977867.0,
1027.0,1615.0,2129.0,2181.0,3977870.0,
1026.0,1615.0,2132.0,2183.0,3977874.0,
1026.0,1616.0,2131.0,2185.0,3977878.0,
1027.0,1617.0,2131.0,2187.0,3977881.0,
1030.0,1619.0,2132.0,2187.0,3977885.0,
1027.0,1619.0,2134.0,2186.0,3977888.0,
1027.0,1618.0,2134.0,2186.0,3977892.0,
1026.0,1619.0,2134.0,2187.0,3977896.0,
1028.0,1615.0,2135.0,2188.0,3977899.0,
1026.0,1618.0,2136.0,2185.0,3977903.0,
1024.0,1618.0,2139.0,2181.0,3977907.0,
1026.0,1619.0,2139.0,2180.0,3977910.0,
1025.0,1617.0,2139.0,2179.0,3977914.0,
1026.0,1619.0,2136.0,2175.0,3977918.0,
1026.0,1619.0,2138.0,2171.0,3977921.0,
1026.0,1619.0,2137.0,2162.0,3977925.0,
1027.0,1620.0,2137.0,2153.0,3977928.0,
1026.0,1617.0,2136.0,2149.0,3977932.0,
1026.0,1620.0,2138.0,2145.0,3977936.0,
1026.0,1622.0,2137.0,2142.0,3977939.0,
1027.0,1621.0,2138.0,2138.0,3977943.0,
1027.0,1622.0,2138.0,2133.0,3977947.0,
1027.0,1621.0,2139.0,2125.0,3977950.0,
1027.0,1622.0,2139.0,2121.0,3977954.0,
1025.0,1622.0,2136.0,2117.0,3977958.0,
1027.0,1623.0,2137.0,2111.0,3977961.0,
1026.0,1623.0,2132.0,2104.0,3977965.0,
1025.0,1624.0,2130.0,2098.0,3977968.0,
1026.0,1623.0,2127.0,2092.0,3977972.0,
1025.0,1623.0,2124.0,2090.0,3977976.0,
1026.0,1626.0,2121.0,2085.0,3977979.0,
1026.0,1625.0,2116.0,2082.0,3977983.0,
1027.0,1625.0,2114.0,2078.0,3977987.0,
1026.0,1627.0,2106.0,2071.0,3977990.0,
1026.0,1625.0,2106.0,2068.0,3977994.0,
1026.0,1625.0,2102.0,2067.0,3977997.0,
1026.0,1623.0,2100.0,2068.0,3978001.0,
1021.0,1626.0,2094.0,2067.0,3978005.0,
1027.0,1624.0,2093.0,2068.0,3978008.0,
1026.0,1627.0,2091.0,2065.0,3978012.0,
1025.0,1629.0,2088.0,2069.0,3978016.0,
1026.0,1627.0,2085.0,2070.0,3978019.0,
1028.0,1627.0,2084.0,2071.0,3978023.0,
1026.0,1628.0,2080.0,2072.0,3978027.0,
1026.0,1628.0,2077.0,2072.0,3978030.0,
1024.0,1628.0,2075.0,2073.0,3978034.0,
1026.0,1626.0,2073.0,2073.0,3978037.0,
1027.0,1629.0,2069.0,2074.0,3978041.0,
1026.0,1627.0,2067.0,2073.0,3978045.0,
1026.0,1629.0,2064.0,2072.0,3978048.0,
1027.0,1629.0,2062.0,2073.0,3978052.0,
1025.0,1629.0,2061.0,2072.0,3978056.0,
1025.0,1629.0,2057.0,2074.0,3978059.0,
1026.0,1629.0,2058.0,2076.0,3978063.0,
1027.0,1629.0,2055.0,2077.0,3978067.0,
1026.0,1631.0,2050.0,2079.0,3978070.0,
1026.0,1629.0,2049.0,2072.0,3978074.0,
1026.0,1631.0,2048.0,2075.0,3978077.0,
1026.0,1631.0,2045.0,2071.0,3978081.0,
1025.0,1632.0,2043.0,2069.0,3978085.0,
1025.0,1633.0,2042.0,2065.0,3978088.0,
1026.0,1631.0,2044.0,2061.0,3978092.0,
1025.0,1631.0,2041.0,2058.0,3978096.0,
1020.0,1630.0,2037.0,2053.0,3978099.0,
1026.0,1634.0,2037.0,2050.0,3978103.0,
1027.0,1630.0,2035.0,2052.0,3978107.0,
1027.0,1629.0,2033.0,2048.0,3978110.0,
1027.0,1631.0,2035.0,2046.0,3978114.0,
1025.0,1631.0,2033.0,2041.0,3978117.0,
1027.0,1632.0,2034.0,2040.0,3978121.0,
1025.0,1630.0,2034.0,2040.0,3978125.0,
1026.0,1633.0,2033.0,2033.0,3978128.0,
1026.0,1631.0,2034.0,2028.0,3978132.0,
1025.0,1632.0,2031.0,2027.0,3978136.0,
1020.0,1632.0,2033.0,2023.0,3978139.0,
1027.0,1631.0,2028.0,2017.0,3978143.0,
1026.0,1631.0,2031.0,2004.0,3978146.0,
1027.0,1628.0,2030.0,2009.0,3978150.0,
1029.0,1633.0,2026.0,2004.0,3978154.0,
1024.0,1631.0,2027.0,1998.0,3978157.0,
1024.0,1634.0,2025.0,1993.0,3978161.0,
1026.0,1632.0,2021.0,1992.0,3978165.0,
1027.0,1633.0,2021.0,1992.0,3978168.0,
1027.0,1634.0,2020.0,1986.0,3978172.0,
1031.0,1632.0,2019.0,1984.0,3978176.0,
1026.0,1634.0,2015.0,1981.0,3978179.0,
1019.0,1633.0,2016.0,1985.0,3978183.0,
1026.0,1633.0,2015.0,1984.0,3978186.0,
1027.0,1636.0,2010.0,1983.0,3978190.0,
1025.0,1634.0,2010.0,1986.0,3978194.0,
1026.0,1634.0,2006.0,1987.0,3978197.0,
1026.0,1635.0,2003.0,1987.0,3978201.0,
1024.0,1633.0,1998.0,1987.0,3978205.0,
1026.0,1634.0,1997.0,1990.0,3978208.0,
1025.0,1633.0,1995.0,1994.0,3978212.0,
1025.0,1635.0,2000.0,1996.0,3978216.0,
1026.0,1634.0,1991.0,1999.0,3978219.0,
1027.0,1633.0,1990.0,2002.0,3978223.0,
1025.0,1633.0,1988.0,2004.0,3978226.0,
1025.0,1634.0,1987.0,2006.0,3978230.0,
1025.0,1634.0,1987.0,2007.0,3978234.0,
1028.0,1635.0,1985.0,2009.0,3978237.0,
1025.0,1636.0,1984.0,2009.0,3978241.0,
1026.0,1632.0,1982.0,1997.0,3978245.0,
1025.0,1635.0,1978.0,2006.0,3978248.0,
1026.0,1634.0,1977.0,2008.0,3978252.0,
1024.0,1635.0,1979.0,2008.0,3978256.0,
1025.0,1635.0,1976.0,2010.0,3978259.0,
1025.0,1635.0,1977.0,2010.0,3978263.0,
1025.0,1636.0,1976.0,2009.0,3978266.0,
1027.0,1633.0,1978.0,2007.0,3978270.0,
1032.0,1636.0,1976.0,2005.0,3978274.0,
1022.0,1635.0,1975.0,2002.0,3978277.0,
1027.0,1635.0,1974.0,2001.0,3978281.0,
1026.0,1635.0,1974.0,2000.0,3978285.0,
1024.0,1636.0,1972.0,2001.0,3978288.0,
1027.0,1634.0,1970.0,2000.0,3978292.0,
1024.0,1635.0,1970.0,2002.0,3978295.0,
1026.0,1639.0,1970.0,2003.0,3978299.0,
1027.0,1635.0,1967.0,2004.0,3978303.0,
1026.0,1634.0,1969.0,2004.0,3978306.0,
1025.0,1635.0,1968.0,2005.0,3978310.0,
1026.0,1635.0,1967.0,2005.0,3978314.0,
1025.0,1634.0,1965.0,2001.0,3978317.0,
1026.0,1636.0,1964.0,2000.0,3978321.0,
1026.0,1635.0,1961.0,1995.0,3978325.0,
1025.0,1637.0,1960.0,1994.0,3978328.0,
1024.0,1635.0,1959.0,1988.0,3978332.0,
1024.0,1636.0,1960.0,1986.0,3978335.0,
1025.0,1631.0,1958.0,1981.0,3978339.0,
1023.0,1635.0,1959.0,1978.0,3978343.0,
1026.0,1633.0,1962.0,1977.0,3978346.0,
1026.0,1636.0,1962.0,1979.0,3978350.0,
1023.0,1636.0,1963.0,1977.0,3978354.0,
1026.0,1634.0,1960.0,1977.0,3978357.0,
1026.0,1636.0,1962.0,1978.0,3978361.0,
1025.0,1633.0,1963.0,1978.0,3978365.0,
1024.0,1634.0,1961.0,1976.0,3978368.0,
1026.0,1634.0,1963.0,1975.0,3978372.0,
1025.0,1634.0,1961.0,1974.0,3978375.0,
1025.0,1634.0,1962.0,1973.0,3978379.0,
1024.0,1634.0,1958.0,1969.0,3978383.0,
1025.0,1632.0,1959.0,1967.0,3978386.0,
1025.0,1632.0,1958.0,1967.0,3978390.0,
1027.0,1632.0,1959.0,1964.0,3978394.0,
1024.0,1637.0,1959.0,1963.0,3978397.0,
1019.0,1634.0,1958.0,1963.0,3978401.0,
1026.0,1633.0,1959.0,1961.0,3978405.0,
1025.0,1634.0,1957.0,1960.0,3978408.0,
1024.0,1633.0,1955.0,1961.0,3978412.0,
1021.0,1633.0,1955.0,1962.0,3978415.0,
1027.0,1632.0,1953.0,1963.0,3978419.0,
1028.0,1634.0,1950.0,1963.0,3978423.0,
1026.0,1632.0,1948.0,1966.0,3978426.0,
1025.0,1632.0,1947.0,1964.0,3978430.0,
1024.0,1630.0,1946.0,1964.0,3978434.0,
1026.0,1633.0,1947.0,1965.0,3978437.0,
1024.0,1635.0,1945.0,1966.0,3978441.0,
1024.0,1632.0,1944.0,1968.0,3978445.0,
1026.0,1632.0,1943.0,1971.0,3978448.0,
1025.0,1632.0,1943.0,1971.0,3978452.0,
1024.0,1633.0,1942.0,1974.0,3978455.0,
1025.0,1632.0,1940.0,1976.0,3978459.0,
1025.0,1632.0,1937.0,1979.0,3978463.0,
1025.0,1633.0,1938.0,1981.0,3978466.0,
1025.0,1631.0,1938.0,1981.0,3978470.0,
1022.0,1631.0,1937.0,1982.0,3978474.0,
1020.0,1631.0,1933.0,1984.0,3978477.0,
1026.0,1632.0,1933.0,1986.0,3978481.0,
1025.0,1631.0,1932.0,1989.0,3978484.0,
1026.0,1631.0,1930.0,1994.0,3978488.0,
1026.0,1632.0,1931.0,2000.0,3978492.0,
1026.0,1635.0,1932.0,2004.0,3978495.0,
1024.0,1631.0,1934.0,2011.0,3978499.0,
1025.0,1631.0,1932.0,2019.0,3978503.0,
1025.0,1631.0,1936.0,2024.0,3978506.0,
1021.0,1630.0,1938.0,2036.0,3978510.0,
1024.0,1631.0,1941.0,2040.0,3978514.0,
1025.0,1631.0,1942.0,2050.0,3978517.0,
1026.0,1629.0,1941.0,2055.0,3978521.0,
1025.0,1630.0,1945.0,2060.0,3978524.0,
1026.0,1633.0,1946.0,2066.0,3978528.0,
1026.0,1630.0,1950.0,2072.0,3978532.0,
1026.0,1631.0,1952.0,2079.0,3978535.0,
1021.0,1630.0,1959.0,2088.0,3978539.0,
1025.0,1630.0,1959.0,2092.0,3978543.0,
1025.0,1627.0,1964.0,2101.0,3978546.0,
1027.0,1629.0,1967.0,2109.0,3978550.0,
1024.0,1630.0,1972.0,2115.0,3978554.0,
1025.0,1629.0,1978.0,2123.0,3978557.0,
1025.0,1629.0,1982.0,2127.0,3978561.0,
1025.0,1626.0,1989.0,2124.0,3978564.0,
1027.0,1627.0,1996.0,2135.0,3978568.0,
1026.0,1630.0,2000.0,2138.0,3978572.0,
1026.0,1629.0,2008.0,2142.0,3978575.0,
1022.0,1628.0,2012.0,2142.0,3978579.0,
1023.0,1629.0,2020.0,2148.0,3978583.0,
1026.0,1626.0,2026.0,2149.0,3978586.0,
1027.0,1631.0,2032.0,2151.0,3978590.0,
1025.0,1631.0,2039.0,2152.0,3978594.0,
1026.0,1627.0,2043.0,2156.0,3978597.0,
1025.0,1626.0,2048.0,2160.0,3978601.0,
1030.0,1628.0,2053.0,2161.0,3978604.0,
1026.0,1628.0,2055.0,2160.0,3978608.0,
1024.0,1628.0,2060.0,2160.0,3978612.0,
1026.0,1624.0,2063.0,2160.0,3978615.0,
1026.0,1629.0,2068.0,2157.0,3978619.0,
1027.0,1627.0,2069.0,2157.0,3978623.0,
1025.0,1627.0,2072.0,2156.0,3978626.0,
1026.0,1627.0,2074.0,2155.0,3978630.0,
1025.0,1626.0,2073.0,2154.0,3978633.0,
1026.0,1626.0,2077.0,2153.0,3978637.0,
1027.0,1626.0,2077.0,2152.0,3978641.0,
1020.0,1627.0,2079.0,2151.0,3978644.0,
1027.0,1627.0,2081.0,2147.0,3978648.0,
1026.0,1626.0,2084.0,2148.0,3978652.0,
1027.0,1626.0,2083.0,2147.0,3978655.0,
1026.0,1627.0,2083.0,2146.0,3978659.0,
1025.0,1627.0,2085.0,2147.0,3978663.0,
1025.0,1624.0,2083.0,2147.0,3978666.0,
1026.0,1629.0,2084.0,2144.0,3978670.0,
1027.0,1625.0,2083.0,2150.0,3978673.0,
1024.0,1627.0,2083.0,2141.0,3978677.0,
1026.0,1625.0,2081.0,2136.0,3978681.0,
1025.0,1624.0,2080.0,2134.0,3978684.0,
1026.0,1625.0,2077.0,2126.0,3978688.0,
1023.0,1623.0,2077.0,2128.0,3978692.0,
1024.0,1625.0,2074.0,2124.0,3978695.0,
1026.0,1627.0,2070.0,2120.0,3978699.0,
1027.0,1625.0,2067.0,2118.0,3978703.0,
1027.0,1625.0,2064.0,2109.0,3978706.0,
1026.0,1625.0,2061.0,2109.0,3978710.0,
1026.0,1623.0,2056.0,2099.0,3978713.0,
1026.0,1624.0,2053.0,2092.0,3978717.0,
1025.0,1626.0,2054.0,2088.0,3978721.0,
1025.0,1623.0,2051.0,2084.0,3978724.0,
1026.0,1625.0,2048.0,2076.0,3978728.0,
1026.0,1626.0,2045.0,2071.0,3978732.0,
1027.0,1625.0,2042.0,2064.0,3978735.0,
1025.0,1624.0,2034.0,2058.0,3978739.0,
1025.0,1624.0,2036.0,2052.0,3978743.0,
1027.0,1624.0,2030.0,2050.0,3978746.0,
1026.0,1625.0,2027.0,2040.0,3978750.0,
1025.0,1620.0,2021.0,2039.0,3978753.0,
1025.0,1622.0,2015.0,2038.0,3978757.0,
1025.0,1623.0,2010.0,2032.0,3978761.0,
1026.0,1622.0,2008.0,2031.0,3978764.0,
1027.0,1626.0,2005.0,2031.0,3978768.0,
1026.0,1624.0,2003.0,2030.0,3978772.0,
1026.0,1623.0,1999.0,2031.0,3978775.0,
1025.0,1622.0,1998.0,2028.0,3978779.0,
1025.0,1622.0,1997.0,2025.0,3978782.0,
1027.0,1623.0,1994.0,2024.0,3978786.0,
1020.0,1623.0,1993.0,2026.0,3978790.0,
1023.0,1625.0,1990.0,2025.0,3978793.0,
1027.0,1624.0,1990.0,2025.0,3978797.0,
1025.0,1623.0,1989.0,2026.0,3978801.0,
1025.0,1623.0,1989.0,2029.0,3978804.0,
1025.0,1624.0,1991.0,2026.0,3978808.0,
1026.0,1622.0,1989.0,2028.0,3978812.0,
1025.0,1622.0,1990.0,2027.0,3978815.0,
1026.0,1622.0,1992.0,2028.0,3978819.0,
1027.0,1621.0,1993.0,2030.0,3978822.0,
1025.0,1625.0,1993.0,2034.0,3978826.0,
1026.0,1622.0,1992.0,2036.0,3978830.0,
1029.0,1622.0,1995.0,2037.0,3978833.0,
1025.0,1622.0,1994.0,2032.0,3978837.0,
1032.0,1622.0,1995.0,2037.0,3978841.0,
1027.0,1624.0,1996.0,2040.0,3978844.0,
1026.0,1623.0,1996.0,2041.0,3978848.0,
1025.0,1622.0,1996.0,2040.0,3978852.0,
1027.0,1619.0,1997.0,2042.0,3978855.0,
1019.0,1624.0,2000.0,2043.0,3978859.0,
1022.0,1621.0,2003.0,2039.0,3978862.0,
1027.0,1620.0,2003.0,2039.0,3978866.0,
1027.0,1622.0,2008.0,2034.0,3978870.0,
1025.0,1621.0,2008.0,2030.0,3978873.0,
1025.0,1617.0,2011.0,2028.0,3978877.0,
1026.0,1620.0,2011.0,2025.0,3978881.0,
1026.0,1622.0,2014.0,2021.0,3978884.0,
1029.0,1621.0,2018.0,2016.0,3978888.0,
1026.0,1622.0,2016.0,2015.0,3978892.0,
1026.0,1621.0,2017.0,2012.0,3978895.0,
1025.0,1622.0,2018.0,2013.0,3978899.0,
1026.0,1624.0,2019.0,2012.0,3978902.0,
1026.0,1623.0,2020.0,2012.0,3978906.0,
1026.0,1621.0,2019.0,2013.0,3978910.0,
1025.0,1623.0,2020.0,2014.0,3978913.0,
1025.0,1622.0,2021.0,2015.0,3978917.0,
1027.0,1621.0,2020.0,2016.0,3978921.0,
1027.0,1621.0,2019.0,2014.0,3978924.0,
1026.0,1621.0,2019.0,2016.0,3978928.0,
1026.0,1621.0,2017.0,2016.0,3978931.0,
1025.0,1623.0,2012.0,2018.0,3978935.0,
1025.0,1621.0,2011.0,2018.0,3978939.0,
1025.0,1621.0,2010.0,2019.0,3978942.0,
1025.0,1620.0,2010.0,2019.0,3978946.0,
1031.0,1623.0,2003.0,2015.0,3978950.0,
1027.0,1622.0,2005.0,2014.0,3978953.0,
1026.0,1620.0,2001.0,2012.0,3978957.0,
1026.0,1623.0,1996.0,2011.0,3978961.0,
1026.0,1624.0,1994.0,2009.0,3978964.0,
1026.0,1626.0,1990.0,2006.0,3978968.0,
1025.0,1622.0,1990.0,2009.0,3978971.0,
1026.0,1622.0,1992.0,1995.0,3978975.0,
1022.0,1622.0,1987.0,1996.0,3978979.0,
1026.0,1622.0,1981.0,1993.0,3978982.0,
1024.0,1621.0,1979.0,1990.0,3978986.0,
1025.0,1621.0,1978.0,1988.0,3978990.0,
1026.0,1622.0,1975.0,1988.0,3978993.0,
1025.0,1621.0,1974.0,1987.0,3978997.0,
1030.0,1622.0,1970.0,1988.0,3979001.0,
1025.0,1620.0,1968.0,1987.0,3979004.0,
1026.0,1622.0,1965.0,1986.0,3979008.0,
1026.0,1621.0,1965.0,1984.0,3979011.0,
1026.0,1626.0,1966.0,1988.0,3979015.0,
1026.0,1620.0,1961.0,1984.0,3979019.0,
1026.0,1623.0,1964.0,1983.0,3979022.0,
1026.0,1622.0,1960.0,1984.0,3979026.0,
1027.0,1620.0,1959.0,1983.0,3979030.0,
1025.0,1619.0,1957.0,1981.0,3979033.0,
1026.0,1620.0,1958.0,1980.0,3979037.0,
1025.0,1622.0,1955.0,1980.0,3979041.0,
1024.0,1619.0,1956.0,1975.0,3979044.0,
1025.0,1622.0,1955.0,1973.0,3979048.0,
1025.0,1621.0,1950.0,1974.0,3979051.0,
1026.0,1619.0,1950.0,1973.0,3979055.0,
1025.0,1621.0,1948.0,1975.0,3979059.0,
1026.0,1621.0,1946.0,1974.0,3979062.0,
1026.0,1622.0,1943.0,1976.0,3979066.0,
1025.0,1620.0,1940.0,1975.0,3979070.0,
1025.0,1620.0,1942.0,1978.0,3979073.0,
1025.0,1621.0,1939.0,1979.0,3979077.0,
1024.0,1621.0,1938.0,1979.0,3979080.0,
1026.0,1621.0,1939.0,1981.0,3979084.0,
1025.0,1622.0,1940.0,1982.0,3979088.0,
1026.0,1621.0,1939.0,1981.0,3979091.0,
1026.0,1620.0,1934.0,1982.0,3979095.0,
1025.0,1621.0,1937.0,1984.0,3979099.0,
1025.0,1621.0,1931.0,1983.0,3979102.0,
1025.0,1619.0,1937.0,1983.0,3979106.0,
1023.0,1622.0,1937.0,1984.0,3979110.0,
1025.0,1622.0,1936.0,1982.0,3979113.0,
1026.0,1620.0,1935.0,1980.0,3979117.0,
1025.0,1620.0,1938.0,1980.0,3979120.0,
1024.0,1620.0,1937.0,1975.0,3979124.0,
1026.0,1620.0,1935.0,1971.0,3979128.0,
1026.0,1620.0,1938.0,1973.0,3979131.0,
1025.0,1621.0,1938.0,1969.0,3979135.0,
1026.0,1620.0,1937.0,1975.0,3979139.0,
1026.0,1620.0,1939.0,1973.0,3979142.0,
1027.0,1622.0,1941.0,1970.0,3979146.0,
1024.0,1622.0,1941.0,1974.0,3979150.0,
1025.0,1621.0,1939.0,1974.0,3979153.0,
1024.0,1621.0,1939.0,1975.0,3979157.0,
1025.0,1621.0,1941.0,1978.0,3979160.0,
1025.0,1619.0,1939.0,1980.0,3979164.0,
1025.0,1621.0,1938.0,1983.0,3979168.0,
1026.0,1622.0,1937.0,1987.0,3979171.0,
1029.0,1621.0,1938.0,1989.0,3979175.0,
1025.0,1621.0,1935.0,1992.0,3979179.0,
1026.0,1617.0,1933.0,1997.0,3979182.0,
1027.0,1623.0,1932.0,1999.0,3979186.0,
1026.0,1621.0,1931.0,2005.0,3979190.0,
1024.0,1622.0,1932.0,2013.0,3979193.0,
1024.0,1621.0,1928.0,2017.0,3979197.0,
1026.0,1620.0,1931.0,2023.0,3979200.0,
1026.0,1621.0,1930.0,2029.0,3979204.0,
