EDA,Resp,PPG Finger,PPG Ear,arduino_ts,event_code
1726.0,1660.0,2069.0,2039.0,10550586.0,
1726.0,1662.0,2069.0,2038.0,10550590.0,
1726.0,1661.0,2067.0,2035.0,10550593.0,
1732.0,1661.0,2066.0,2030.0,10550597.0,
1727.0,1660.0,2063.0,2027.0,10550600.0,
1728.0,1661.0,2063.0,2021.0,10550604.0,
1729.0,1660.0,2060.0,2011.0,10550608.0,
1727.0,1661.0,2056.0,2002.0,10550611.0,
1726.0,1661.0,2053.0,1998.0,10550615.0,
1727.0,1661.0,2051.0,1987.0,10550619.0,
1726.0,1661.0,2047.0,1978.0,10550622.0,
1727.0,1662.0,2044.0,1970.0,10550626.0,
1727.0,1660.0,2041.0,1964.0,10550629.0,
1728.0,1660.0,2041.0,1957.0,10550633.0,
1727.0,1660.0,2041.0,1949.0,10550637.0,
1727.0,1660.0,2041.0,1946.0,10550640.0,
1727.0,1661.0,2040.0,1939.0,10550644.0,
1728.0,1660.0,2038.0,1936.0,10550648.0,
1727.0,1660.0,2038.0,1934.0,10550651.0,
1727.0,1660.0,2036.0,1930.0,10550655.0,
1727.0,1665.0,2033.0,1925.0,10550659.0,
1727.0,1660.0,2030.0,1921.0,10550662.0,
1727.0,1659.0,2028.0,1914.0,10550666.0,
1728.0,1659.0,2026.0,1911.0,10550669.0,
1727.0,1660.0,2025.0,1904.0,10550673.0,
1727.0,1654.0,2024.0,1901.0,10550677.0,
1728.0,1660.0,2020.0,1898.0,10550680.0,
1727.0,1661.0,2020.0,1895.0,10550684.0,
1728.0,1659.0,2019.0,1891.0,10550688.0,
1727.0,1657.0,2013.0,1887.0,10550691.0,
1728.0,1659.0,2013.0,1881.0,10550695.0,
1726.0,1660.0,2011.0,1879.0,10550699.0,
1727.0,1660.0,2009.0,1876.0,10550702.0,
1728.0,1659.0,2006.0,1873.0,10550706.0,
1728.0,1659.0,2005.0,1874.0,10550709.0,
1728.0,1659.0,2004.0,1868.0,10550713.0,
1727.0,1660.0,2004.0,1866.0,10550717.0,
1728.0,1661.0,2002.0,1858.0,10550720.0,
1727.0,1658.0,2003.0,1853.0,10550724.0,
1729.0,1659.0,2005.0,1848.0,10550728.0,
1728.0,1659.0,2004.0,1847.0,10550731.0,
1726.0,1658.0,2005.0,1843.0,10550735.0,
1727.0,1660.0,2004.0,1841.0,10550739.0,
1728.0,1657.0,2005.0,1839.0,10550742.0,
1729.0,1658.0,2006.0,1833.0,10550746.0,
1728.0,1659.0,2009.0,1831.0,10550749.0,
1728.0,1659.0,2008.0,1828.0,10550753.0,
1728.0,1658.0,2006.0,1828.0,10550757.0,
1728.0,1658.0,2008.0,1822.0,10550760.0,
1728.0,1659.0,2012.0,1819.0,10550764.0,
1729.0,1658.0,2012.0,1818.0,10550768.0,
1733.0,1658.0,2009.0,1820.0,10550771.0,
1728.0,1659.0,2012.0,1818.0,10550775.0,
1729.0,1658.0,2011.0,1816.0,10550779.0,
1729.0,1659.0,2011.0,1814.0,10550782.0,
1728.0,1658.0,2011.0,1813.0,10550786.0,
1728.0,1658.0,2010.0,1814.0,10550789.0,
1729.0,1657.0,2014.0,1810.0,10550793.0,
1728.0,1659.0,2014.0,1808.0,10550797.0,
1728.0,1658.0,2013.0,1812.0,10550800.0,
1728.0,1657.0,2013.0,1806.0,10550804.0,
1728.0,1655.0,2017.0,1806.0,10550808.0,
1728.0,1657.0,2019.0,1806.0,10550811.0,
1728.0,1657.0,2018.0,1802.0,10550815.0,
1729.0,1658.0,2017.0,1802.0,10550818.0,
1728.0,1657.0,2018.0,1800.0,10550822.0,
1730.0,1657.0,2019.0,1797.0,10550826.0,
1729.0,1659.0,2021.0,1796.0,10550829.0,
1729.0,1657.0,2023.0,1796.0,10550833.0,
1730.0,1657.0,2024.0,1786.0,10550837.0,
1730.0,1655.0,2022.0,1785.0,10550840.0,
1729.0,1657.0,2023.0,1780.0,10550844.0,
1729.0,1657.0,2025.0,1780.0,10550848.0,
1729.0,1657.0,2025.0,1777.0,10550851.0,
1730.0,1654.0,2023.0,1767.0,10550855.0,
1729.0,1656.0,2025.0,1770.0,10550858.0,
1729.0,1658.0,2023.0,1766.0,10550862.0,
1726.0,1656.0,2023.0,1762.0,10550866.0,
1730.0,1656.0,2022.0,1758.0,10550869.0,
1728.0,1656.0,2021.0,1756.0,10550873.0,
1730.0,1654.0,2022.0,1755.0,10550877.0,
1727.0,1657.0,2022.0,1751.0,10550880.0,
1732.0,1657.0,2020.0,1749.0,10550884.0,
1729.0,1657.0,2019.0,1748.0,10550888.0,
1726.0,1657.0,2020.0,1749.0,10550891.0,
1731.0,1656.0,2017.0,1747.0,10550895.0,
1733.0,1657.0,2017.0,1750.0,10550898.0,
1729.0,1662.0,2014.0,1749.0,10550902.0,
1730.0,1657.0,2012.0,1750.0,10550906.0,
1728.0,1657.0,2012.0,1751.0,10550909.0,
1730.0,1657.0,2010.0,1750.0,10550913.0,
1729.0,1656.0,2011.0,1749.0,10550917.0,
1729.0,1656.0,2008.0,1747.0,10550920.0,
1731.0,1656.0,2009.0,1751.0,10550924.0,
1731.0,1656.0,2008.0,1748.0,10550928.0,
1736.0,1656.0,2007.0,1753.0,10550931.0,
1730.0,1656.0,2006.0,1752.0,10550935.0,
1730.0,1655.0,2003.0,1753.0,10550938.0,
1729.0,1655.0,2002.0,1754.0,10550942.0,
1731.0,1656.0,1998.0,1749.0,10550946.0,
1731.0,1656.0,1996.0,1749.0,10550949.0,
1730.0,1656.0,1996.0,1746.0,10550953.0,
1730.0,1655.0,1994.0,1740.0,10550957.0,
1730.0,1656.0,1992.0,1737.0,10550960.0,
1730.0,1656.0,1991.0,1737.0,10550964.0,
1726.0,1656.0,1991.0,1733.0,10550968.0,
1730.0,1656.0,1990.0,1737.0,10550971.0,
1730.0,1656.0,1992.0,1736.0,10550975.0,
1732.0,1655.0,1993.0,1737.0,10550978.0,
1731.0,1655.0,1992.0,1733.0,10550982.0,
1731.0,1653.0,1993.0,1736.0,10550986.0,
1731.0,1656.0,1994.0,1736.0,10550989.0,
1731.0,1655.0,1998.0,1739.0,10550993.0,
1730.0,1656.0,1995.0,1737.0,10550997.0,
1732.0,1655.0,1996.0,1742.0,10551000.0,
1731.0,1655.0,1997.0,1746.0,10551004.0,
1731.0,1655.0,1998.0,1751.0,10551007.0,
1731.0,1656.0,2000.0,1756.0,10551011.0,
1731.0,1655.0,1999.0,1765.0,10551015.0,
1731.0,1655.0,2002.0,1775.0,10551018.0,
1736.0,1655.0,2004.0,1791.0,10551022.0,
1733.0,1656.0,2006.0,1802.0,10551026.0,
1731.0,1656.0,2008.0,1824.0,10551029.0,
1731.0,1655.0,2012.0,1841.0,10551033.0,
1732.0,1655.0,2017.0,1862.0,10551037.0,
1732.0,1656.0,2022.0,1884.0,10551040.0,
1731.0,1656.0,2027.0,1908.0,10551044.0,
1730.0,1655.0,2035.0,1932.0,10551047.0,
1731.0,1656.0,2040.0,1963.0,10551051.0,
1731.0,1656.0,2049.0,1992.0,10551055.0,
1733.0,1655.0,2058.0,2025.0,10551058.0,
1732.0,1655.0,2072.0,2057.0,10551062.0,
1731.0,1656.0,2085.0,2087.0,10551066.0,
1732.0,1656.0,2099.0,2123.0,10551069.0,
1732.0,1657.0,2111.0,2151.0,10551073.0,
1732.0,1655.0,2126.0,2183.0,10551077.0,
1732.0,1655.0,2139.0,2214.0,10551080.0,
1731.0,1656.0,2160.0,2244.0,10551084.0,
1732.0,1656.0,2171.0,2273.0,10551087.0,
1733.0,1655.0,2184.0,2300.0,10551091.0,
1731.0,1653.0,2203.0,2325.0,10551095.0,
1731.0,1655.0,2219.0,2351.0,10551098.0,
1733.0,1656.0,2234.0,2378.0,10551102.0,
1732.0,1654.0,2252.0,2399.0,10551106.0,
1732.0,1656.0,2266.0,2423.0,10551109.0,
1737.0,1654.0,2279.0,2444.0,10551113.0,
1732.0,1655.0,2289.0,2464.0,10551117.0,
1732.0,1655.0,2303.0,2483.0,10551120.0,
1732.0,1654.0,2316.0,2499.0,10551124.0,
1732.0,1654.0,2327.0,2513.0,10551127.0,
1732.0,1654.0,2336.0,2528.0,10551131.0,
1732.0,1654.0,2345.0,2539.0,10551135.0,
1732.0,1656.0,2353.0,2550.0,10551138.0,
1733.0,1655.0,2357.0,2556.0,10551142.0,
1733.0,1655.0,2361.0,2560.0,10551146.0,
1733.0,1655.0,2364.0,2565.0,10551149.0,
1730.0,1654.0,2365.0,2572.0,10551153.0,
1733.0,1654.0,2367.0,2570.0,10551157.0,
1732.0,1654.0,2367.0,2571.0,10551160.0,
1733.0,1654.0,2364.0,2572.0,10551164.0,
1733.0,1656.0,2361.0,2574.0,10551167.0,
1733.0,1654.0,2357.0,2573.0,10551171.0,
1733.0,1657.0,2353.0,2570.0,10551175.0,
1733.0,1654.0,2349.0,2571.0,10551178.0,
1732.0,1654.0,2344.0,2566.0,10551182.0,
1734.0,1655.0,2337.0,2563.0,10551186.0,
1731.0,1655.0,2329.0,2561.0,10551189.0,
1733.0,1654.0,2322.0,2552.0,10551193.0,
1733.0,1655.0,2312.0,2552.0,10551197.0,
1732.0,1655.0,2305.0,2545.0,10551200.0,
1733.0,1655.0,2296.0,2542.0,10551204.0,
1732.0,1654.0,2289.0,2536.0,10551207.0,
1733.0,1651.0,2280.0,2533.0,10551211.0,
1733.0,1653.0,2273.0,2521.0,10551215.0,
1733.0,1654.0,2264.0,2516.0,10551218.0,
1737.0,1654.0,2253.0,2509.0,10551222.0,
1732.0,1654.0,2244.0,2501.0,10551226.0,
1733.0,1653.0,2237.0,2490.0,10551229.0,
1733.0,1655.0,2228.0,2484.0,10551233.0,
1732.0,1654.0,2218.0,2472.0,10551236.0,
1733.0,1655.0,2212.0,2465.0,10551240.0,
1738.0,1655.0,2204.0,2452.0,10551244.0,
1732.0,1654.0,2200.0,2441.0,10551247.0,
1732.0,1653.0,2191.0,2427.0,10551251.0,
1732.0,1654.0,2185.0,2413.0,10551255.0,
1733.0,1654.0,2179.0,2398.0,10551258.0,
1733.0,1653.0,2171.0,2381.0,10551262.0,
1733.0,1652.0,2165.0,2364.0,10551266.0,
1732.0,1653.0,2162.0,2346.0,10551269.0,
1732.0,1653.0,2151.0,2330.0,10551273.0,
1733.0,1654.0,2149.0,2309.0,10551276.0,
1733.0,1653.0,2142.0,2292.0,10551280.0,
1732.0,1653.0,2138.0,2273.0,10551284.0,
1731.0,1655.0,2133.0,2256.0,10551287.0,
1732.0,1653.0,2127.0,2239.0,10551291.0,
1732.0,1654.0,2123.0,2217.0,10551295.0,
1731.0,1653.0,2118.0,2204.0,10551298.0,
1732.0,1651.0,2116.0,2189.0,10551302.0,
1732.0,1653.0,2110.0,2175.0,10551306.0,
1732.0,1652.0,2107.0,2163.0,10551309.0,
1732.0,1647.0,2101.0,2152.0,10551313.0,
1732.0,1653.0,2097.0,2143.0,10551316.0,
1730.0,1654.0,2092.0,2134.0,10551320.0,
1731.0,1653.0,2090.0,2123.0,10551324.0,
1726.0,1653.0,2085.0,2117.0,10551327.0,
1732.0,1652.0,2083.0,2104.0,10551331.0,
1731.0,1653.0,2080.0,2097.0,10551335.0,
1731.0,1653.0,2075.0,2091.0,10551338.0,
1731.0,1657.0,2069.0,2087.0,10551342.0,
1732.0,1652.0,2068.0,2079.0,10551346.0,
1731.0,1653.0,2064.0,2077.0,10551349.0,
1731.0,1655.0,2063.0,2073.0,10551353.0,
1730.0,1652.0,2060.0,2069.0,10551356.0,
1731.0,1652.0,2059.0,2068.0,10551360.0,
1733.0,1654.0,2056.0,2071.0,10551364.0,
1731.0,1653.0,2052.0,2056.0,10551367.0,
1730.0,1652.0,2051.0,2063.0,10551371.0,
1730.0,1652.0,2050.0,2060.0,10551375.0,
1729.0,1652.0,2049.0,2062.0,10551378.0,
1729.0,1652.0,2053.0,2058.0,10551382.0,
1722.0,1653.0,2051.0,2058.0,10551386.0,
1730.0,1652.0,2052.0,2053.0,10551389.0,
1730.0,1648.0,2053.0,2049.0,10551393.0,
1729.0,1651.0,2055.0,2043.0,10551396.0,
1730.0,1653.0,2055.0,2041.0,10551400.0,
1730.0,1653.0,2058.0,2037.0,10551404.0,
1729.0,1653.0,2057.0,2034.0,10551407.0,
1734.0,1652.0,2062.0,2029.0,10551411.0,
1729.0,1652.0,2060.0,2025.0,10551415.0,
1728.0,1650.0,2062.0,2019.0,10551418.0,
1728.0,1652.0,2061.0,2015.0,10551422.0,
1729.0,1652.0,2060.0,2009.0,10551425.0,
1729.0,1651.0,2066.0,2007.0,10551429.0,
1729.0,1647.0,2060.0,2003.0,10551433.0,
1728.0,1651.0,2059.0,1999.0,10551436.0,
1728.0,1651.0,2058.0,1995.0,10551440.0,
1728.0,1653.0,2055.0,1990.0,10551444.0,
1728.0,1652.0,2058.0,1985.0,10551447.0,
1730.0,1652.0,2054.0,1984.0,10551451.0,
1727.0,1652.0,2052.0,1976.0,10551455.0,
1727.0,1653.0,2049.0,1973.0,10551458.0,
1727.0,1652.0,2049.0,1966.0,10551462.0,
1728.0,1651.0,2046.0,1962.0,10551465.0,
1727.0,1652.0,2046.0,1957.0,10551469.0,
1727.0,1651.0,2044.0,1952.0,10551473.0,
1726.0,1652.0,2044.0,1947.0,10551476.0,
1725.0,1649.0,2042.0,1938.0,10551480.0,
1725.0,1652.0,2040.0,1932.0,10551484.0,
1724.0,1651.0,2042.0,1928.0,10551487.0,
1725.0,1652.0,2038.0,1919.0,10551491.0,
1726.0,1656.0,2037.0,1917.0,10551495.0,
1726.0,1652.0,2036.0,1911.0,10551498.0,
1725.0,1652.0,2036.0,1907.0,10551502.0,
1725.0,1651.0,2033.0,1904.0,10551505.0,
1725.0,1652.0,2032.0,1899.0,10551509.0,
1724.0,1651.0,2030.0,1890.0,10551513.0,
1722.0,1652.0,2029.0,1882.0,10551516.0,
1724.0,1652.0,2026.0,1878.0,10551520.0,
1724.0,1652.0,2025.0,1871.0,10551524.0,
1724.0,1657.0,2022.0,1867.0,10551527.0,
1724.0,1651.0,2018.0,1864.0,10551531.0,
1725.0,1650.0,2018.0,1856.0,10551535.0,
1723.0,1652.0,2016.0,1852.0,10551538.0,
1723.0,1651.0,2012.0,1845.0,10551542.0,
1723.0,1651.0,2010.0,1834.0,10551545.0,
1721.0,1651.0,2017.0,1827.0,10551549.0,
1723.0,1652.0,2010.0,1820.0,10551553.0,
1722.0,1652.0,2010.0,1811.0,10551556.0,
1723.0,1651.0,2010.0,1805.0,10551560.0,
1722.0,1651.0,2008.0,1796.0,10551564.0,
1721.0,1652.0,2009.0,1790.0,10551567.0,
1723.0,1651.0,2008.0,1786.0,10551571.0,
1721.0,1654.0,2007.0,1783.0,10551575.0,
1721.0,1652.0,2006.0,1778.0,10551578.0,
1721.0,1651.0,2008.0,1773.0,10551582.0,
1720.0,1651.0,2004.0,1773.0,10551585.0,
1721.0,1653.0,2004.0,1769.0,10551589.0,
1720.0,1653.0,2005.0,1774.0,10551593.0,
1720.0,1651.0,2001.0,1772.0,10551596.0,
1720.0,1652.0,1999.0,1773.0,10551600.0,
1721.0,1651.0,1998.0,1772.0,10551604.0,
1720.0,1652.0,1997.0,1774.0,10551607.0,
1720.0,1652.0,1995.0,1774.0,10551611.0,
1720.0,1651.0,1996.0,1772.0,10551614.0,
1720.0,1653.0,2000.0,1773.0,10551618.0,
1719.0,1651.0,2000.0,1769.0,10551622.0,
1718.0,1651.0,2002.0,1766.0,10551625.0,
1717.0,1651.0,2003.0,1766.0,10551629.0,
1719.0,1651.0,2004.0,1762.0,10551633.0,
1717.0,1651.0,2006.0,1759.0,10551636.0,
1717.0,1650.0,2009.0,1761.0,10551640.0,
1717.0,1648.0,2010.0,1755.0,10551644.0,
1717.0,1653.0,2013.0,1755.0,10551647.0,
1717.0,1651.0,2013.0,1753.0,10551651.0,
1717.0,1651.0,2014.0,1753.0,10551654.0,
1716.0,1652.0,2014.0,1752.0,10551658.0,
1716.0,1651.0,2015.0,1749.0,10551662.0,
1715.0,1651.0,2014.0,1749.0,10551665.0,
1715.0,1651.0,2013.0,1749.0,10551669.0,
1715.0,1650.0,2013.0,1747.0,10551673.0,
1715.0,1650.0,2012.0,1747.0,10551676.0,
1714.0,1652.0,2013.0,1750.0,10551680.0,
1714.0,1651.0,2011.0,1746.0,10551684.0,
1713.0,1650.0,2011.0,1749.0,10551687.0,
1713.0,1651.0,2009.0,1742.0,10551691.0,
1713.0,1651.0,2010.0,1749.0,10551694.0,
1713.0,1651.0,2010.0,1747.0,10551698.0,
1712.0,1650.0,2009.0,1745.0,10551702.0,
1712.0,1651.0,2006.0,1748.0,10551705.0,
1704.0,1651.0,2006.0,1749.0,10551709.0,
1712.0,1651.0,2003.0,1751.0,10551713.0,
1712.0,1649.0,2002.0,1755.0,10551716.0,
1712.0,1652.0,1999.0,1754.0,10551720.0,
1712.0,1651.0,2001.0,1759.0,10551724.0,
1710.0,1651.0,2000.0,1764.0,10551727.0,
1710.0,1651.0,1999.0,1767.0,10551731.0,
1709.0,1651.0,2002.0,1771.0,10551734.0,
1709.0,1651.0,1999.0,1774.0,10551738.0,
1710.0,1650.0,2001.0,1777.0,10551742.0,
1711.0,1651.0,2001.0,1778.0,10551745.0,
1710.0,1650.0,2000.0,1782.0,10551749.0,
1709.0,1651.0,1999.0,1783.0,10551753.0,
1709.0,1656.0,2000.0,1783.0,10551756.0,
1708.0,1651.0,1998.0,1782.0,10551760.0,
1707.0,1651.0,1998.0,1780.0,10551764.0,
1706.0,1651.0,1995.0,1783.0,10551767.0,
1707.0,1650.0,1995.0,1778.0,10551771.0,
1708.0,1650.0,1995.0,1775.0,10551774.0,
1706.0,1650.0,1992.0,1773.0,10551778.0,
1705.0,1655.0,1991.0,1771.0,10551782.0,
1706.0,1649.0,1992.0,1769.0,10551785.0,
1706.0,1650.0,1990.0,1770.0,10551789.0,
1705.0,1650.0,1990.0,1768.0,10551793.0,
1705.0,1651.0,1990.0,1767.0,10551796.0,
1702.0,1649.0,1991.0,1766.0,10551800.0,
1704.0,1651.0,1993.0,1764.0,10551803.0,
1704.0,1650.0,1993.0,1761.0,10551807.0,
1704.0,1651.0,1993.0,1760.0,10551811.0,
1703.0,1650.0,1996.0,1758.0,10551814.0,
1703.0,1650.0,1996.0,1754.0,10551818.0,
1702.0,1651.0,1996.0,1754.0,10551822.0,
1702.0,1650.0,1994.0,1750.0,10551825.0,
1702.0,1649.0,1996.0,1747.0,10551829.0,
1702.0,1651.0,1997.0,1742.0,10551833.0,
1699.0,1650.0,1995.0,1739.0,10551836.0,
1700.0,1651.0,1999.0,1740.0,10551840.0,
1700.0,1651.0,1999.0,1735.0,10551843.0,
1695.0,1651.0,1999.0,1737.0,10551847.0,
1700.0,1651.0,2001.0,1734.0,10551851.0,
1698.0,1650.0,1998.0,1733.0,10551854.0,
1699.0,1650.0,1995.0,1729.0,10551858.0,
1695.0,1650.0,1996.0,1729.0,10551862.0,
1698.0,1650.0,1994.0,1725.0,10551865.0,
1698.0,1649.0,1993.0,1723.0,10551869.0,
1697.0,1650.0,1993.0,1721.0,10551873.0,
1697.0,1649.0,1994.0,1721.0,10551876.0,
1698.0,1649.0,1992.0,1717.0,10551880.0,
1696.0,1650.0,1992.0,1715.0,10551883.0,
1695.0,1650.0,1992.0,1712.0,10551887.0,
1696.0,1650.0,1991.0,1712.0,10551891.0,
1696.0,1650.0,1990.0,1707.0,10551894.0,
1695.0,1652.0,1989.0,1707.0,10551898.0,
1695.0,1649.0,1990.0,1705.0,10551902.0,
1694.0,1650.0,1989.0,1699.0,10551905.0,
1694.0,1651.0,1990.0,1696.0,10551909.0,
1693.0,1644.0,1986.0,1693.0,10551913.0,
1693.0,1650.0,1984.0,1690.0,10551916.0,
1693.0,1650.0,1984.0,1689.0,10551920.0,
1692.0,1649.0,1985.0,1688.0,10551923.0,
1692.0,1650.0,1986.0,1690.0,10551927.0,
1692.0,1650.0,1986.0,1693.0,10551931.0,
1691.0,1650.0,1989.0,1695.0,10551934.0,
1691.0,1649.0,1990.0,1701.0,10551938.0,
1691.0,1650.0,1997.0,1708.0,10551942.0,
1687.0,1650.0,1993.0,1717.0,10551945.0,
1690.0,1650.0,1996.0,1727.0,10551949.0,
1690.0,1650.0,1997.0,1742.0,10551953.0,
1689.0,1654.0,1999.0,1754.0,10551956.0,
1688.0,1651.0,2003.0,1772.0,10551960.0,
1688.0,1649.0,2005.0,1789.0,10551963.0,
1688.0,1650.0,2007.0,1808.0,10551967.0,
1687.0,1651.0,2012.0,1828.0,10551971.0,
1687.0,1650.0,2018.0,1854.0,10551974.0,
1687.0,1650.0,2023.0,1878.0,10551978.0,
1687.0,1651.0,2028.0,1910.0,10551982.0,
1686.0,1651.0,2033.0,1933.0,10551985.0,
1685.0,1649.0,2043.0,1967.0,10551989.0,
1686.0,1649.0,2053.0,1996.0,10551993.0,
1684.0,1651.0,2064.0,2025.0,10551996.0,
1685.0,1652.0,2077.0,2057.0,10552000.0,
1681.0,1650.0,2093.0,2091.0,10552003.0,
1684.0,1651.0,2106.0,2121.0,10552007.0,
1685.0,1650.0,2119.0,2160.0,10552011.0,
1682.0,1655.0,2138.0,2191.0,10552014.0,
1687.0,1651.0,2155.0,2229.0,10552018.0,
1682.0,1651.0,2173.0,2257.0,10552022.0,
1681.0,1650.0,2193.0,2290.0,10552025.0,
1687.0,1650.0,2212.0,2320.0,10552029.0,
1681.0,1652.0,2230.0,2349.0,10552032.0,
1683.0,1650.0,2245.0,2379.0,10552036.0,
1680.0,1651.0,2263.0,2404.0,10552040.0,
1680.0,1650.0,2280.0,2429.0,10552043.0,
1681.0,1650.0,2296.0,2446.0,10552047.0,
1680.0,1651.0,2310.0,2471.0,10552051.0,
1678.0,1651.0,2325.0,2488.0,10552054.0,
1679.0,1650.0,2339.0,2506.0,10552058.0,
1679.0,1650.0,2352.0,2523.0,10552062.0,
1677.0,1650.0,2359.0,2536.0,10552065.0,
1677.0,1650.0,2367.0,2547.0,10552069.0,
1677.0,1651.0,2372.0,2558.0,10552072.0,
1676.0,1651.0,2379.0,2562.0,10552076.0,
1676.0,1650.0,2383.0,2570.0,10552080.0,
1675.0,1649.0,2386.0,2575.0,10552083.0,
1674.0,1651.0,2387.0,2577.0,10552087.0,
1675.0,1650.0,2388.0,2580.0,10552091.0,
1674.0,1648.0,2386.0,2582.0,10552094.0,
1673.0,1651.0,2382.0,2585.0,10552098.0,
1673.0,1650.0,2382.0,2583.0,10552102.0,
1672.0,1650.0,2374.0,2581.0,10552105.0,
1672.0,1651.0,2369.0,2578.0,10552109.0,
1671.0,1650.0,2361.0,2574.0,10552112.0,
1671.0,1650.0,2356.0,2571.0,10552116.0,
1665.0,1650.0,2348.0,2562.0,10552120.0,
1671.0,1652.0,2340.0,2562.0,10552123.0,
1669.0,1649.0,2332.0,2565.0,10552127.0,
1670.0,1650.0,2322.0,2552.0,10552131.0,
1670.0,1651.0,2315.0,2547.0,10552134.0,
1668.0,1651.0,2308.0,2535.0,10552138.0,
1668.0,1650.0,2300.0,2534.0,10552142.0,
1663.0,1650.0,2289.0,2528.0,10552145.0,
1662.0,1650.0,2282.0,2519.0,10552149.0,
1667.0,1650.0,2274.0,2511.0,10552152.0,
1667.0,1650.0,2266.0,2502.0,10552156.0,
1667.0,1650.0,2258.0,2493.0,10552160.0,
1666.0,1649.0,2248.0,2484.0,10552163.0,
1666.0,1650.0,2238.0,2476.0,10552167.0,
1664.0,1650.0,2232.0,2467.0,10552171.0,
1659.0,1650.0,2226.0,2454.0,10552174.0,
1664.0,1650.0,2216.0,2444.0,10552178.0,
1668.0,1650.0,2213.0,2431.0,10552182.0,
1664.0,1652.0,2206.0,2417.0,10552185.0,
1656.0,1650.0,2200.0,2408.0,10552189.0,
1662.0,1649.0,2192.0,2397.0,10552192.0,
1662.0,1651.0,2190.0,2379.0,10552196.0,
1661.0,1649.0,2185.0,2373.0,10552200.0,
1661.0,1650.0,2181.0,2359.0,10552203.0,
1660.0,1650.0,2175.0,2346.0,10552207.0,
1661.0,1650.0,2173.0,2330.0,10552211.0,
1658.0,1650.0,2164.0,2317.0,10552214.0,
1659.0,1650.0,2162.0,2302.0,10552218.0,
1658.0,1651.0,2155.0,2288.0,10552221.0,
1659.0,1649.0,2148.0,2274.0,10552225.0,
1657.0,1649.0,2146.0,2261.0,10552229.0,
1657.0,1649.0,2140.0,2249.0,10552232.0,
1657.0,1649.0,2137.0,2237.0,10552236.0,
1656.0,1648.0,2129.0,2226.0,10552240.0,
1657.0,1650.0,2125.0,2215.0,10552243.0,
1655.0,1649.0,2122.0,2201.0,10552247.0,
1656.0,1649.0,2115.0,2191.0,10552251.0,
1654.0,1649.0,2110.0,2177.0,10552254.0,
1654.0,1649.0,2106.0,2165.0,10552258.0,
1653.0,1648.0,2102.0,2156.0,10552261.0,
1653.0,1649.0,2096.0,2148.0,10552265.0,
1652.0,1650.0,2093.0,2141.0,10552269.0,
1652.0,1651.0,2087.0,2132.0,10552272.0,
1652.0,1649.0,2084.0,2126.0,10552276.0,
1652.0,1649.0,2080.0,2127.0,10552280.0,
1651.0,1649.0,2073.0,2116.0,10552283.0,
1650.0,1649.0,2076.0,2111.0,10552287.0,
1651.0,1648.0,2072.0,2108.0,10552291.0,
1643.0,1648.0,2070.0,2102.0,10552294.0,
1643.0,1650.0,2067.0,2100.0,10552298.0,
1649.0,1649.0,2066.0,2096.0,10552301.0,
1648.0,1649.0,2061.0,2090.0,10552305.0,
1649.0,1645.0,2066.0,2089.0,10552309.0,
1653.0,1650.0,2068.0,2087.0,10552312.0,
1649.0,1650.0,2067.0,2084.0,10552316.0,
1646.0,1649.0,2074.0,2086.0,10552320.0,
1646.0,1650.0,2069.0,2080.0,10552323.0,
1646.0,1649.0,2070.0,2077.0,10552327.0,
1646.0,1650.0,2068.0,2073.0,10552331.0,
1645.0,1649.0,2071.0,2072.0,10552334.0,
1644.0,1649.0,2074.0,2068.0,10552338.0,
1638.0,1649.0,2073.0,2068.0,10552341.0,
1644.0,1649.0,2074.0,2063.0,10552345.0,
1644.0,1649.0,2077.0,2054.0,10552349.0,
1643.0,1649.0,2073.0,2058.0,10552352.0,
1643.0,1650.0,2075.0,2054.0,10552356.0,
1642.0,1649.0,2074.0,2053.0,10552360.0,
1642.0,1648.0,2073.0,2045.0,10552363.0,
1641.0,1648.0,2072.0,2041.0,10552367.0,
1641.0,1647.0,2070.0,2035.0,10552371.0,
1640.0,1649.0,2069.0,2028.0,10552374.0,
1640.0,1649.0,2067.0,2021.0,10552378.0,
1639.0,1654.0,2067.0,2017.0,10552381.0,
1636.0,1649.0,2066.0,2009.0,10552385.0,
1638.0,1650.0,2066.0,2007.0,10552389.0,
1639.0,1648.0,2064.0,1999.0,10552392.0,
1637.0,1649.0,2061.0,1989.0,10552396.0,
1637.0,1649.0,2059.0,1985.0,10552400.0,
1637.0,1648.0,2057.0,1976.0,10552403.0,
1636.0,1647.0,2057.0,1968.0,10552407.0,
1637.0,1652.0,2052.0,1965.0,10552410.0,
1636.0,1649.0,2051.0,1959.0,10552414.0,
1636.0,1650.0,2047.0,1951.0,10552418.0,
1636.0,1648.0,2044.0,1950.0,10552421.0,
1634.0,1648.0,2040.0,1944.0,10552425.0,
1633.0,1649.0,2037.0,1943.0,10552429.0,
1634.0,1644.0,2036.0,1939.0,10552432.0,
1633.0,1649.0,2034.0,1933.0,10552436.0,
1630.0,1649.0,2033.0,1926.0,10552440.0,
1632.0,1648.0,2030.0,1924.0,10552443.0,
1635.0,1649.0,2029.0,1917.0,10552447.0,
1631.0,1649.0,2030.0,1914.0,10552450.0,
1631.0,1649.0,2030.0,1911.0,10552454.0,
1631.0,1649.0,2030.0,1907.0,10552458.0,
1630.0,1650.0,2029.0,1903.0,10552461.0,
1630.0,1648.0,2030.0,1895.0,10552465.0,
1628.0,1649.0,2027.0,1892.0,10552469.0,
1629.0,1649.0,2025.0,1887.0,10552472.0,
1628.0,1649.0,2024.0,1882.0,10552476.0,
1629.0,1649.0,2021.0,1877.0,10552480.0,
1628.0,1649.0,2019.0,1872.0,10552483.0,
1628.0,1648.0,2015.0,1867.0,10552487.0,
1627.0,1648.0,2013.0,1865.0,10552490.0,
1627.0,1649.0,2013.0,1856.0,10552494.0,
1626.0,1649.0,2007.0,1855.0,10552498.0,
1626.0,1648.0,2008.0,1851.0,10552501.0,
1625.0,1646.0,2003.0,1849.0,10552505.0,
1625.0,1650.0,2002.0,1846.0,10552509.0,
1624.0,1649.0,1999.0,1847.0,10552512.0,
1625.0,1648.0,1997.0,1845.0,10552516.0,
1623.0,1649.0,1996.0,1844.0,10552520.0,
1623.0,1648.0,1995.0,1841.0,10552523.0,
1623.0,1649.0,1994.0,1841.0,10552527.0,
1629.0,1649.0,1995.0,1836.0,10552530.0,
1623.0,1648.0,1994.0,1835.0,10552534.0,
1631.0,1643.0,1994.0,1832.0,10552538.0,
1622.0,1648.0,1993.0,1830.0,10552541.0,
1622.0,1651.0,1992.0,1828.0,10552545.0,
1621.0,1648.0,1991.0,1825.0,10552549.0,
1621.0,1649.0,1993.0,1824.0,10552552.0,
1621.0,1650.0,1987.0,1820.0,10552556.0,
1620.0,1649.0,1992.0,1821.0,10552560.0,
1619.0,1650.0,1992.0,1820.0,10552563.0,
1619.0,1648.0,1993.0,1818.0,10552567.0,
1617.0,1649.0,1992.0,1821.0,10552570.0,
1618.0,1650.0,1991.0,1819.0,10552574.0,
1618.0,1649.0,1991.0,1822.0,10552578.0,
1618.0,1648.0,1989.0,1819.0,10552581.0,
1623.0,1648.0,1988.0,1814.0,10552585.0,
1617.0,1649.0,1986.0,1815.0,10552589.0,
1616.0,1649.0,1983.0,1814.0,10552592.0,
1617.0,1643.0,1982.0,1812.0,10552596.0,
1615.0,1648.0,1979.0,1813.0,10552599.0,
1615.0,1650.0,1982.0,1813.0,10552603.0,
1615.0,1648.0,1980.0,1812.0,10552607.0,
1616.0,1650.0,1978.0,1815.0,10552610.0,
1615.0,1649.0,1979.0,1812.0,10552614.0,
1613.0,1648.0,1976.0,1813.0,10552618.0,
1614.0,1650.0,1980.0,1813.0,10552621.0,
1614.0,1651.0,1982.0,1804.0,10552625.0,
1613.0,1649.0,1981.0,1807.0,10552629.0,
1613.0,1650.0,1983.0,1805.0,10552632.0,
1612.0,1650.0,1983.0,1797.0,10552636.0,
1612.0,1650.0,1983.0,1795.0,10552639.0,
1613.0,1650.0,1984.0,1786.0,10552643.0,
1611.0,1649.0,1985.0,1782.0,10552647.0,
1610.0,1650.0,1988.0,1776.0,10552650.0,
1610.0,1650.0,1988.0,1767.0,10552654.0,
1610.0,1648.0,1989.0,1760.0,10552658.0,
1610.0,1651.0,1989.0,1747.0,10552661.0,
1609.0,1651.0,1990.0,1746.0,10552665.0,
1609.0,1651.0,1989.0,1741.0,10552669.0,
1609.0,1651.0,1989.0,1740.0,10552672.0,
1609.0,1650.0,1987.0,1740.0,10552676.0,
1609.0,1652.0,1988.0,1736.0,10552679.0,
1607.0,1651.0,1987.0,1734.0,10552683.0,
1606.0,1651.0,1986.0,1736.0,10552687.0,
1606.0,1650.0,1985.0,1735.0,10552690.0,
1606.0,1651.0,1984.0,1733.0,10552694.0,
1606.0,1651.0,1984.0,1733.0,10552698.0,
1605.0,1650.0,1983.0,1730.0,10552701.0,
1602.0,1651.0,1985.0,1726.0,10552705.0,
1605.0,1652.0,1983.0,1724.0,10552709.0,
1606.0,1651.0,1982.0,1720.0,10552712.0,
1604.0,1651.0,1981.0,1720.0,10552716.0,
1604.0,1652.0,1982.0,1721.0,10552719.0,
1603.0,1652.0,1981.0,1718.0,10552723.0,
1603.0,1651.0,1983.0,1719.0,10552727.0,
1603.0,1652.0,1986.0,1719.0,10552730.0,
1597.0,1652.0,1986.0,1719.0,10552734.0,
1601.0,1651.0,1986.0,1714.0,10552738.0,
1600.0,1651.0,1984.0,1714.0,10552741.0,
1601.0,1651.0,1988.0,1714.0,10552745.0,
1602.0,1651.0,1988.0,1717.0,10552749.0,
1600.0,1653.0,1988.0,1715.0,10552752.0,
1600.0,1651.0,1989.0,1716.0,10552756.0,
1600.0,1651.0,1987.0,1718.0,10552759.0,
1599.0,1651.0,1988.0,1717.0,10552763.0,
1593.0,1652.0,1991.0,1715.0,10552767.0,
1598.0,1652.0,1991.0,1720.0,10552770.0,
1598.0,1651.0,1991.0,1719.0,10552774.0,
1598.0,1651.0,1991.0,1714.0,10552778.0,
1598.0,1650.0,1991.0,1719.0,10552781.0,
1597.0,1652.0,1993.0,1721.0,10552785.0,
1597.0,1651.0,1990.0,1720.0,10552789.0,
1596.0,1650.0,1992.0,1719.0,10552792.0,
1598.0,1650.0,1990.0,1718.0,10552796.0,
1596.0,1648.0,1990.0,1719.0,10552799.0,
1595.0,1650.0,1993.0,1718.0,10552803.0,
1595.0,1650.0,1993.0,1718.0,10552807.0,
1595.0,1649.0,1992.0,1718.0,10552810.0,
1594.0,1650.0,1994.0,1719.0,10552814.0,
1593.0,1651.0,1993.0,1716.0,10552818.0,
1597.0,1650.0,1991.0,1714.0,10552821.0,
1594.0,1650.0,1989.0,1717.0,10552825.0,
1592.0,1650.0,1985.0,1721.0,10552828.0,
1592.0,1648.0,1986.0,1721.0,10552832.0,
1592.0,1650.0,1984.0,1725.0,10552836.0,
1592.0,1649.0,1983.0,1722.0,10552839.0,
1592.0,1649.0,1982.0,1721.0,10552843.0,
1591.0,1650.0,1983.0,1722.0,10552847.0,
1590.0,1649.0,1980.0,1722.0,10552850.0,
1591.0,1649.0,1980.0,1722.0,10552854.0,
1587.0,1649.0,1980.0,1724.0,10552858.0,
1589.0,1649.0,1980.0,1723.0,10552861.0,
1589.0,1649.0,1982.0,1726.0,10552865.0,
1589.0,1649.0,1984.0,1726.0,10552868.0,
1590.0,1649.0,1986.0,1726.0,10552872.0,
1588.0,1650.0,1985.0,1726.0,10552876.0,
1589.0,1648.0,1986.0,1726.0,10552879.0,
1588.0,1649.0,1990.0,1724.0,10552883.0,
1587.0,1647.0,1989.0,1724.0,10552887.0,
1587.0,1648.0,1986.0,1729.0,10552890.0,
1587.0,1650.0,1988.0,1729.0,10552894.0,
1585.0,1649.0,1988.0,1729.0,10552898.0,
1586.0,1649.0,1986.0,1735.0,10552901.0,
1585.0,1648.0,1991.0,1740.0,10552905.0,
1585.0,1648.0,1990.0,1747.0,10552908.0,
1585.0,1650.0,1993.0,1752.0,10552912.0,
1584.0,1648.0,1993.0,1760.0,10552916.0,
1584.0,1648.0,1997.0,1767.0,10552919.0,
1584.0,1651.0,1999.0,1778.0,10552923.0,
1575.0,1649.0,2003.0,1789.0,10552927.0,
1583.0,1649.0,2005.0,1808.0,10552930.0,
1581.0,1649.0,2008.0,1821.0,10552934.0,
1582.0,1649.0,2011.0,1840.0,10552938.0,
1582.0,1649.0,2018.0,1855.0,10552941.0,
1581.0,1650.0,2022.0,1874.0,10552945.0,
1581.0,1648.0,2029.0,1893.0,10552948.0,
1580.0,1648.0,2038.0,1918.0,10552952.0,
1581.0,1648.0,2046.0,1940.0,10552956.0,
1578.0,1649.0,2056.0,1967.0,10552959.0,
1579.0,1649.0,2066.0,1990.0,10552963.0,
1578.0,1649.0,2078.0,2019.0,10552967.0,
1577.0,1648.0,2084.0,2043.0,10552970.0,
1579.0,1649.0,2101.0,2066.0,10552974.0,
1578.0,1648.0,2122.0,2096.0,10552978.0,
1578.0,1643.0,2134.0,2123.0,10552981.0,
1577.0,1649.0,2152.0,2149.0,10552985.0,
1577.0,1648.0,2169.0,2177.0,10552988.0,
1577.0,1648.0,2186.0,2202.0,10552992.0,
1576.0,1648.0,2200.0,2225.0,10552996.0,
1575.0,1651.0,2217.0,2254.0,10552999.0,
1575.0,1649.0,2232.0,2279.0,10553003.0,
1574.0,1649.0,2252.0,2304.0,10553007.0,
1574.0,1648.0,2269.0,2325.0,10553010.0,
1574.0,1648.0,2283.0,2345.0,10553014.0,
1574.0,1649.0,2301.0,2367.0,10553018.0,
1572.0,1648.0,2312.0,2388.0,10553021.0,
1573.0,1648.0,2327.0,2405.0,10553025.0,
1580.0,1649.0,2339.0,2421.0,10553028.0,
1573.0,1649.0,2353.0,2435.0,10553032.0,
1573.0,1648.0,2359.0,2446.0,10553036.0,
1572.0,1649.0,2375.0,2456.0,10553039.0,
1572.0,1648.0,2378.0,2463.0,10553043.0,
1572.0,1648.0,2386.0,2472.0,10553047.0,
1571.0,1649.0,2390.0,2476.0,10553050.0,
1571.0,1649.0,2394.0,2482.0,10553054.0,
1564.0,1649.0,2396.0,2485.0,10553057.0,
1571.0,1649.0,2399.0,2491.0,10553061.0,
1569.0,1649.0,2395.0,2493.0,10553065.0,
1568.0,1649.0,2394.0,2499.0,10553068.0,
1568.0,1649.0,2387.0,2503.0,10553072.0,
1569.0,1650.0,2384.0,2504.0,10553076.0,
1568.0,1649.0,2377.0,2505.0,10553079.0,
1567.0,1649.0,2371.0,2503.0,10553083.0,
1570.0,1648.0,2365.0,2501.0,10553087.0,
1566.0,1650.0,2357.0,2496.0,10553090.0,
1566.0,1648.0,2345.0,2495.0,10553094.0,
1565.0,1648.0,2338.0,2491.0,10553097.0,
1566.0,1649.0,2328.0,2488.0,10553101.0,
1565.0,1652.0,2318.0,2485.0,10553105.0,
1564.0,1648.0,2303.0,2485.0,10553108.0,
1564.0,1647.0,2298.0,2482.0,10553112.0,
1566.0,1650.0,2289.0,2480.0,10553116.0,
1565.0,1649.0,2279.0,2477.0,10553119.0,
1563.0,1648.0,2267.0,2475.0,10553123.0,
1564.0,1649.0,2257.0,2468.0,10553127.0,
1563.0,1649.0,2248.0,2465.0,10553130.0,
1563.0,1648.0,2239.0,2458.0,10553134.0,
1562.0,1649.0,2230.0,2453.0,10553137.0,
1561.0,1648.0,2223.0,2448.0,10553141.0,
1561.0,1648.0,2216.0,2438.0,10553145.0,
1561.0,1649.0,2208.0,2431.0,10553148.0,
1560.0,1648.0,2204.0,2418.0,10553152.0,
1560.0,1649.0,2195.0,2409.0,10553156.0,
1560.0,1648.0,2188.0,2397.0,10553159.0,
1559.0,1648.0,2179.0,2381.0,10553163.0,
1560.0,1648.0,2181.0,2368.0,10553167.0,
1558.0,1648.0,2175.0,2356.0,10553170.0,
1559.0,1647.0,2174.0,2342.0,10553174.0,
1557.0,1648.0,2170.0,2332.0,10553177.0,
1557.0,1648.0,2169.0,2318.0,10553181.0,
1557.0,1648.0,2164.0,2306.0,10553185.0,
1557.0,1648.0,2161.0,2291.0,10553188.0,
1556.0,1648.0,2158.0,2276.0,10553192.0,
1555.0,1648.0,2153.0,2258.0,10553196.0,
1558.0,1647.0,2153.0,2245.0,10553199.0,
1555.0,1648.0,2149.0,2224.0,10553203.0,
1556.0,1648.0,2156.0,2208.0,10553207.0,
1554.0,1647.0,2141.0,2190.0,10553210.0,
1553.0,1648.0,2139.0,2173.0,10553214.0,
1553.0,1647.0,2133.0,2156.0,10553217.0,
1554.0,1647.0,2130.0,2141.0,10553221.0,
1556.0,1647.0,2127.0,2124.0,10553225.0,
1552.0,1646.0,2122.0,2110.0,10553228.0,
1550.0,1646.0,2118.0,2099.0,10553232.0,
1550.0,1648.0,2114.0,2087.0,10553236.0,
1551.0,1647.0,2114.0,2083.0,10553239.0,
1551.0,1648.0,2109.0,2069.0,10553243.0,
1550.0,1646.0,2104.0,2066.0,10553246.0,
1550.0,1648.0,2103.0,2056.0,10553250.0,
1550.0,1647.0,2099.0,2046.0,10553254.0,
1552.0,1647.0,2097.0,2039.0,10553257.0,
1548.0,1645.0,2093.0,2035.0,10553261.0,
1549.0,1646.0,2089.0,2031.0,10553265.0,
1549.0,1647.0,2087.0,2028.0,10553268.0,
1548.0,1647.0,2086.0,2023.0,10553272.0,
1548.0,1646.0,2080.0,2019.0,10553276.0,
1548.0,1646.0,2077.0,2018.0,10553279.0,
1549.0,1647.0,2073.0,2016.0,10553283.0,
1547.0,1647.0,2073.0,2013.0,10553286.0,
1555.0,1646.0,2070.0,2014.0,10553290.0,
1547.0,1647.0,2067.0,2016.0,10553294.0,
1546.0,1647.0,2065.0,2016.0,10553297.0,
1541.0,1646.0,2063.0,2019.0,10553301.0,
1545.0,1646.0,2062.0,2017.0,10553305.0,
1546.0,1646.0,2060.0,2018.0,10553308.0,
1545.0,1646.0,2059.0,2016.0,10553312.0,
1548.0,1646.0,2057.0,2013.0,10553316.0,
1545.0,1645.0,2058.0,2013.0,10553319.0,
1544.0,1647.0,2057.0,2008.0,10553323.0,
1544.0,1646.0,2056.0,2002.0,10553326.0,
1544.0,1645.0,2053.0,2002.0,10553330.0,
1544.0,1646.0,2050.0,2000.0,10553334.0,
1543.0,1646.0,2052.0,1996.0,10553337.0,
1543.0,1645.0,2050.0,1998.0,10553341.0,
1544.0,1645.0,2050.0,1993.0,10553345.0,
1542.0,1641.0,2050.0,1994.0,10553348.0,
1542.0,1645.0,2051.0,1988.0,10553352.0,
1541.0,1646.0,2052.0,1983.0,10553356.0,
1542.0,1645.0,2052.0,1981.0,10553359.0,
1542.0,1646.0,2051.0,1979.0,10553363.0,
1541.0,1645.0,2053.0,1976.0,10553366.0,
1541.0,1644.0,2054.0,1970.0,10553370.0,
1541.0,1645.0,2058.0,1970.0,10553374.0,
1540.0,1645.0,2053.0,1969.0,10553377.0,
1540.0,1645.0,2059.0,1966.0,10553381.0,
1540.0,1645.0,2057.0,1963.0,10553385.0,
1540.0,1645.0,2058.0,1962.0,10553388.0,
1534.0,1645.0,2056.0,1959.0,10553392.0,
1539.0,1647.0,2056.0,1954.0,10553396.0,
1541.0,1645.0,2056.0,1954.0,10553399.0,
1538.0,1645.0,2053.0,1950.0,10553403.0,
1538.0,1641.0,2052.0,1954.0,10553406.0,
1538.0,1641.0,2048.0,1957.0,10553410.0,
1538.0,1646.0,2044.0,1957.0,10553414.0,
1538.0,1645.0,2039.0,1962.0,10553417.0,
1537.0,1640.0,2035.0,1962.0,10553421.0,
1537.0,1645.0,2032.0,1959.0,10553425.0,
1537.0,1644.0,2028.0,1956.0,10553428.0,
1535.0,1644.0,2016.0,1955.0,10553432.0,
1537.0,1646.0,2019.0,1954.0,10553436.0,
1536.0,1643.0,2017.0,1945.0,10553439.0,
1536.0,1645.0,2013.0,1945.0,10553443.0,
1535.0,1645.0,2009.0,1944.0,10553446.0,
1535.0,1644.0,2006.0,1938.0,10553450.0,
1535.0,1645.0,2004.0,1934.0,10553454.0,
1535.0,1646.0,2001.0,1927.0,10553457.0,
1534.0,1646.0,1999.0,1922.0,10553461.0,
1534.0,1645.0,1998.0,1915.0,10553465.0,
1534.0,1644.0,2001.0,1910.0,10553468.0,
1534.0,1645.0,1994.0,1904.0,10553472.0,
1528.0,1644.0,1993.0,1896.0,10553475.0,
1534.0,1645.0,1991.0,1892.0,10553479.0,
1532.0,1644.0,1986.0,1886.0,10553483.0,
1533.0,1643.0,1986.0,1880.0,10553486.0,
1532.0,1644.0,1985.0,1878.0,10553490.0,
1535.0,1645.0,1984.0,1869.0,10553494.0,
1532.0,1644.0,1982.0,1866.0,10553497.0,
1527.0,1644.0,1979.0,1864.0,10553501.0,
1539.0,1644.0,1979.0,1858.0,10553505.0,
1533.0,1645.0,1977.0,1853.0,10553508.0,
1531.0,1643.0,1975.0,1852.0,10553512.0,
1531.0,1643.0,1975.0,1846.0,10553515.0,
1531.0,1645.0,1979.0,1843.0,10553519.0,
1529.0,1643.0,1974.0,1835.0,10553523.0,
1530.0,1644.0,1973.0,1834.0,10553526.0,
1531.0,1644.0,1976.0,1828.0,10553530.0,
1531.0,1644.0,1974.0,1825.0,10553534.0,
1530.0,1644.0,1975.0,1820.0,10553537.0,
1530.0,1644.0,1974.0,1818.0,10553541.0,
1529.0,1645.0,1975.0,1811.0,10553545.0,
1530.0,1644.0,1974.0,1809.0,10553548.0,
1529.0,1644.0,1977.0,1806.0,10553552.0,
1528.0,1644.0,1975.0,1804.0,10553555.0,
1529.0,1646.0,1978.0,1801.0,10553559.0,
1528.0,1643.0,1977.0,1796.0,10553563.0,
1528.0,1644.0,1976.0,1797.0,10553566.0,
1528.0,1644.0,1977.0,1797.0,10553570.0,
1528.0,1644.0,1977.0,1792.0,10553574.0,
1528.0,1644.0,1980.0,1795.0,10553577.0,
1528.0,1644.0,1978.0,1799.0,10553581.0,
1528.0,1644.0,1978.0,1797.0,10553585.0,
1527.0,1644.0,1979.0,1799.0,10553588.0,
1527.0,1644.0,1980.0,1803.0,10553592.0,
1527.0,1645.0,1978.0,1805.0,10553595.0,
1527.0,1643.0,1979.0,1803.0,10553599.0,
1526.0,1643.0,1979.0,1800.0,10553603.0,
1526.0,1641.0,1979.0,1799.0,10553606.0,
1527.0,1644.0,1979.0,1797.0,10553610.0,
1525.0,1643.0,1979.0,1794.0,10553614.0,
1526.0,1644.0,1979.0,1791.0,10553617.0,
1527.0,1643.0,1978.0,1789.0,10553621.0,
1525.0,1644.0,1979.0,1785.0,10553625.0,
1524.0,1644.0,1978.0,1785.0,10553628.0,
1525.0,1644.0,1981.0,1785.0,10553632.0,
1525.0,1642.0,1980.0,1783.0,10553635.0,
1523.0,1645.0,1979.0,1780.0,10553639.0,
1525.0,1639.0,1980.0,1777.0,10553643.0,
1525.0,1644.0,1982.0,1773.0,10553646.0,
1524.0,1644.0,1981.0,1776.0,10553650.0,
1524.0,1643.0,1982.0,1774.0,10553654.0,
1523.0,1644.0,1982.0,1774.0,10553657.0,
1523.0,1644.0,1979.0,1773.0,10553661.0,
1523.0,1644.0,1981.0,1773.0,10553664.0,
1523.0,1644.0,1979.0,1776.0,10553668.0,
1523.0,1644.0,1979.0,1773.0,10553672.0,
1521.0,1644.0,1979.0,1773.0,10553675.0,
1522.0,1645.0,1980.0,1771.0,10553679.0,
1523.0,1645.0,1978.0,1773.0,10553683.0,
1522.0,1644.0,1981.0,1771.0,10553686.0,
1523.0,1638.0,1982.0,1772.0,10553690.0,
1523.0,1644.0,1982.0,1770.0,10553694.0,
1523.0,1645.0,1982.0,1772.0,10553697.0,
1522.0,1646.0,1981.0,1772.0,10553701.0,
1522.0,1645.0,1979.0,1772.0,10553704.0,
1522.0,1644.0,1976.0,1775.0,10553708.0,
1522.0,1644.0,1976.0,1773.0,10553712.0,
1521.0,1647.0,1975.0,1769.0,10553715.0,
1523.0,1644.0,1977.0,1766.0,10553719.0,
1521.0,1646.0,1975.0,1766.0,10553723.0,
1522.0,1645.0,1975.0,1764.0,10553726.0,
1521.0,1645.0,1974.0,1766.0,10553730.0,
1522.0,1645.0,1972.0,1759.0,10553734.0,
1521.0,1646.0,1969.0,1765.0,10553737.0,
1520.0,1644.0,1969.0,1763.0,10553741.0,
1521.0,1646.0,1967.0,1762.0,10553744.0,
1521.0,1646.0,1967.0,1759.0,10553748.0,
1520.0,1645.0,1963.0,1760.0,10553752.0,
1521.0,1643.0,1960.0,1758.0,10553755.0,
1521.0,1646.0,1958.0,1756.0,10553759.0,
1517.0,1646.0,1958.0,1753.0,10553763.0,
1521.0,1646.0,1956.0,1751.0,10553766.0,
1520.0,1645.0,1951.0,1751.0,10553770.0,
1520.0,1646.0,1952.0,1753.0,10553774.0,
1520.0,1646.0,1951.0,1751.0,10553777.0,
1520.0,1646.0,1951.0,1758.0,10553781.0,
1520.0,1647.0,1951.0,1753.0,10553784.0,
1519.0,1646.0,1952.0,1755.0,10553788.0,
1520.0,1646.0,1952.0,1756.0,10553792.0,
1520.0,1646.0,1953.0,1754.0,10553795.0,
1520.0,1648.0,1953.0,1758.0,10553799.0,
1519.0,1646.0,1953.0,1755.0,10553803.0,
1519.0,1648.0,1947.0,1753.0,10553806.0,
1519.0,1646.0,1956.0,1752.0,10553810.0,
1520.0,1646.0,1956.0,1750.0,10553814.0,
1525.0,1646.0,1956.0,1744.0,10553817.0,
1519.0,1646.0,1957.0,1745.0,10553821.0,
1519.0,1646.0,1959.0,1736.0,10553824.0,
1520.0,1646.0,1960.0,1735.0,10553828.0,
1520.0,1647.0,1963.0,1732.0,10553832.0,
1519.0,1647.0,1962.0,1723.0,10553835.0,
1518.0,1647.0,1963.0,1723.0,10553839.0,
1519.0,1653.0,1965.0,1725.0,10553843.0,
1516.0,1648.0,1967.0,1721.0,10553846.0,
1520.0,1642.0,1970.0,1719.0,10553850.0,
1519.0,1647.0,1970.0,1716.0,10553853.0,
1518.0,1647.0,1972.0,1714.0,10553857.0,
1519.0,1648.0,1974.0,1713.0,10553861.0,
1518.0,1648.0,1976.0,1712.0,10553864.0,
1518.0,1648.0,1977.0,1712.0,10553868.0,
1520.0,1648.0,1977.0,1721.0,10553872.0,
1518.0,1647.0,1977.0,1714.0,10553875.0,
1519.0,1647.0,1974.0,1722.0,10553879.0,
1519.0,1647.0,1977.0,1725.0,10553883.0,
1519.0,1649.0,1975.0,1732.0,10553886.0,
1519.0,1650.0,1975.0,1743.0,10553890.0,
1519.0,1648.0,1973.0,1751.0,10553893.0,
1519.0,1648.0,1976.0,1766.0,10553897.0,
1518.0,1648.0,1974.0,1778.0,10553901.0,
1518.0,1649.0,1979.0,1789.0,10553904.0,
1519.0,1648.0,1981.0,1807.0,10553908.0,
1519.0,1648.0,1981.0,1826.0,10553912.0,
1519.0,1648.0,1985.0,1831.0,10553915.0,
1514.0,1649.0,1989.0,1859.0,10553919.0,
1519.0,1648.0,1993.0,1875.0,10553923.0,
1519.0,1649.0,2001.0,1898.0,10553926.0,
1518.0,1648.0,2010.0,1917.0,10553930.0,
1519.0,1648.0,2017.0,1941.0,10553933.0,
1518.0,1648.0,2029.0,1963.0,10553937.0,
1519.0,1648.0,2040.0,1989.0,10553941.0,
1518.0,1648.0,2055.0,2012.0,10553944.0,
1517.0,1648.0,2066.0,2038.0,10553948.0,
1518.0,1648.0,2080.0,2061.0,10553952.0,
1518.0,1649.0,2093.0,2085.0,10553955.0,
1518.0,1648.0,2113.0,2111.0,10553959.0,
1519.0,1650.0,2130.0,2134.0,10553963.0,
1518.0,1648.0,2146.0,2153.0,10553966.0,
1518.0,1649.0,2165.0,2177.0,10553970.0,
1518.0,1649.0,2181.0,2196.0,10553973.0,
1518.0,1648.0,2202.0,2217.0,10553977.0,
1517.0,1649.0,2218.0,2237.0,10553981.0,
1522.0,1648.0,2237.0,2255.0,10553984.0,
1517.0,1649.0,2255.0,2271.0,10553988.0,
1518.0,1649.0,2270.0,2286.0,10553992.0,
1518.0,1649.0,2284.0,2305.0,10553995.0,
1518.0,1649.0,2301.0,2319.0,10553999.0,
1517.0,1649.0,2314.0,2333.0,10554003.0,
1517.0,1649.0,2325.0,2344.0,10554006.0,
1515.0,1649.0,2335.0,2356.0,10554010.0,
1516.0,1648.0,2347.0,2366.0,10554013.0,
1518.0,1649.0,2359.0,2375.0,10554017.0,
1518.0,1650.0,2362.0,2384.0,10554021.0,
1516.0,1650.0,2372.0,2389.0,10554024.0,
1518.0,1650.0,2375.0,2396.0,10554028.0,
1517.0,1652.0,2379.0,2398.0,10554032.0,
1517.0,1657.0,2380.0,2401.0,10554035.0,
1517.0,1649.0,2380.0,2402.0,10554039.0,
1516.0,1651.0,2377.0,2407.0,10554043.0,
1512.0,1649.0,2376.0,2406.0,10554046.0,
1518.0,1651.0,2371.0,2407.0,10554050.0,
1517.0,1652.0,2363.0,2406.0,10554053.0,
1517.0,1651.0,2358.0,2406.0,10554057.0,
1517.0,1652.0,2348.0,2406.0,10554061.0,
1518.0,1651.0,2339.0,2401.0,10554064.0,
1517.0,1652.0,2328.0,2398.0,10554068.0,
1519.0,1651.0,2319.0,2399.0,10554072.0,
1521.0,1652.0,2308.0,2395.0,10554075.0,
1518.0,1651.0,2298.0,2392.0,10554079.0,
1515.0,1652.0,2285.0,2386.0,10554082.0,
1517.0,1651.0,2273.0,2383.0,10554086.0,
1517.0,1652.0,2262.0,2381.0,10554090.0,
1524.0,1652.0,2252.0,2375.0,10554093.0,
1516.0,1652.0,2240.0,2373.0,10554097.0,
1517.0,1650.0,2230.0,2374.0,10554101.0,
1517.0,1652.0,2222.0,2370.0,10554104.0,
1517.0,1652.0,2209.0,2367.0,10554108.0,
1517.0,1650.0,2206.0,2361.0,10554112.0,
1518.0,1652.0,2199.0,2358.0,10554115.0,
1517.0,1652.0,2191.0,2353.0,10554119.0,
1518.0,1653.0,2186.0,2349.0,10554122.0,
1519.0,1652.0,2183.0,2339.0,10554126.0,
1517.0,1653.0,2173.0,2332.0,10554130.0,
1517.0,1651.0,2167.0,2323.0,10554133.0,
1517.0,1653.0,2160.0,2311.0,10554137.0,
1517.0,1653.0,2158.0,2302.0,10554141.0,
1518.0,1653.0,2151.0,2294.0,10554144.0,
1517.0,1654.0,2149.0,2279.0,10554148.0,
1518.0,1653.0,2145.0,2274.0,10554152.0,
1518.0,1654.0,2141.0,2259.0,10554155.0,
1517.0,1652.0,2138.0,2254.0,10554159.0,
1518.0,1654.0,2132.0,2241.0,10554162.0,
1516.0,1655.0,2127.0,2228.0,10554166.0,
1517.0,1653.0,2125.0,2220.0,10554170.0,
1518.0,1655.0,2122.0,2207.0,10554173.0,
1517.0,1655.0,2117.0,2197.0,10554177.0,
1516.0,1654.0,2114.0,2183.0,10554181.0,
1518.0,1654.0,2109.0,2177.0,10554184.0,
1517.0,1655.0,2103.0,2165.0,10554188.0,
1518.0,1655.0,2099.0,2156.0,10554192.0,
1517.0,1655.0,2097.0,2144.0,10554195.0,
1521.0,1654.0,2091.0,2136.0,10554199.0,
1517.0,1657.0,2086.0,2126.0,10554202.0,
1515.0,1655.0,2081.0,2118.0,10554206.0,
1518.0,1654.0,2077.0,2111.0,10554210.0,
1518.0,1653.0,2074.0,2105.0,10554213.0,
1517.0,1656.0,2072.0,2098.0,10554217.0,
1517.0,1655.0,2067.0,2096.0,10554221.0,
1518.0,1655.0,2064.0,2092.0,10554224.0,
1518.0,1654.0,2060.0,2092.0,10554228.0,
1517.0,1655.0,2058.0,2086.0,10554232.0,
1520.0,1656.0,2055.0,2090.0,10554235.0,
1518.0,1654.0,2053.0,2087.0,10554239.0,
1518.0,1652.0,2050.0,2087.0,10554242.0,
1517.0,1655.0,2052.0,2088.0,10554246.0,
1518.0,1658.0,2051.0,2088.0,10554250.0,
1518.0,1655.0,2045.0,2085.0,10554253.0,
1518.0,1655.0,2047.0,2085.0,10554257.0,
1519.0,1656.0,2043.0,2083.0,10554261.0,
1519.0,1655.0,2042.0,2080.0,10554264.0,
1518.0,1657.0,2042.0,2080.0,10554268.0,
1519.0,1656.0,2043.0,2076.0,10554271.0,
1518.0,1655.0,2043.0,2065.0,10554275.0,
1519.0,1656.0,2045.0,2071.0,10554279.0,
1518.0,1657.0,2044.0,2071.0,10554282.0,
1519.0,1657.0,2043.0,2068.0,10554286.0,
1513.0,1656.0,2045.0,2069.0,10554290.0,
1520.0,1657.0,2046.0,2062.0,10554293.0,
1519.0,1657.0,2048.0,2059.0,10554297.0,
1518.0,1659.0,2048.0,2054.0,10554301.0,
1520.0,1657.0,2050.0,2047.0,10554304.0,
1519.0,1658.0,2051.0,2039.0,10554308.0,
1519.0,1657.0,2050.0,2038.0,10554311.0,
1520.0,1658.0,2052.0,2028.0,10554315.0,
1518.0,1652.0,2046.0,2020.0,10554319.0,
1519.0,1657.0,2051.0,2016.0,10554322.0,
1520.0,1657.0,2053.0,2009.0,10554326.0,
1519.0,1658.0,2052.0,2007.0,10554330.0,
1519.0,1657.0,2054.0,2000.0,10554333.0,
1520.0,1658.0,2055.0,1999.0,10554337.0,
1519.0,1657.0,2054.0,1992.0,10554341.0,
1519.0,1658.0,2057.0,1988.0,10554344.0,
1520.0,1657.0,2056.0,1981.0,10554348.0,
1520.0,1658.0,2055.0,1977.0,10554351.0,
1520.0,1655.0,2056.0,1969.0,10554355.0,
1519.0,1658.0,2057.0,1962.0,10554359.0,
1520.0,1658.0,2055.0,1957.0,10554362.0,
1521.0,1658.0,2054.0,1950.0,10554366.0,
1520.0,1658.0,2052.0,1949.0,10554370.0,
1520.0,1658.0,2050.0,1943.0,10554373.0,
1520.0,1658.0,2047.0,1942.0,10554377.0,
1520.0,1657.0,2046.0,1938.0,10554381.0,
1520.0,1656.0,2042.0,1935.0,10554384.0,
1521.0,1656.0,2039.0,1929.0,10554388.0,
1520.0,1658.0,2033.0,1928.0,10554391.0,
1520.0,1658.0,2032.0,1923.0,10554395.0,
1521.0,1658.0,2029.0,1921.0,10554399.0,
1520.0,1657.0,2023.0,1918.0,10554402.0,
1520.0,1657.0,2018.0,1915.0,10554406.0,
1520.0,1658.0,2018.0,1910.0,10554410.0,
1522.0,1656.0,2012.0,1909.0,10554413.0,
1521.0,1658.0,2010.0,1902.0,10554417.0,
1519.0,1658.0,2010.0,1900.0,10554421.0,
1521.0,1657.0,2006.0,1896.0,10554424.0,
1521.0,1656.0,2004.0,1895.0,10554428.0,
1522.0,1658.0,2002.0,1892.0,10554431.0,
1522.0,1657.0,1999.0,1888.0,10554435.0,
1522.0,1656.0,1997.0,1882.0,10554439.0,
1522.0,1657.0,1993.0,1881.0,10554442.0,
1522.0,1656.0,1992.0,1879.0,10554446.0,
1521.0,1657.0,1989.0,1880.0,10554450.0,
1522.0,1656.0,1989.0,1877.0,10554453.0,
1523.0,1656.0,1985.0,1877.0,10554457.0,
1522.0,1656.0,1981.0,1875.0,10554461.0,
1523.0,1656.0,1979.0,1876.0,10554464.0,
1522.0,1656.0,1979.0,1872.0,10554468.0,
1523.0,1658.0,1975.0,1873.0,10554471.0,
1523.0,1656.0,1974.0,1870.0,10554475.0,
1521.0,1656.0,1971.0,1870.0,10554479.0,
1523.0,1656.0,1970.0,1866.0,10554482.0,
1523.0,1655.0,1968.0,1864.0,10554486.0,
1523.0,1655.0,1970.0,1864.0,10554490.0,
1524.0,1655.0,1971.0,1862.0,10554493.0,
1523.0,1655.0,1971.0,1862.0,10554497.0,
1524.0,1655.0,1971.0,1862.0,10554500.0,
1524.0,1656.0,1973.0,1859.0,10554504.0,
1523.0,1654.0,1976.0,1855.0,10554508.0,
1524.0,1655.0,1977.0,1853.0,10554511.0,
1523.0,1655.0,1982.0,1848.0,10554515.0,
1526.0,1655.0,1983.0,1847.0,10554519.0,
1525.0,1658.0,1984.0,1842.0,10554522.0,
1525.0,1654.0,1985.0,1845.0,10554526.0,
1524.0,1654.0,1987.0,1832.0,10554530.0,
1524.0,1654.0,1989.0,1829.0,10554533.0,
1525.0,1654.0,1994.0,1824.0,10554537.0,
1526.0,1652.0,1998.0,1817.0,10554540.0,
1525.0,1654.0,1995.0,1812.0,10554544.0,
1525.0,1653.0,2003.0,1808.0,10554548.0,
1525.0,1653.0,2004.0,1804.0,10554551.0,
1526.0,1652.0,2006.0,1798.0,10554555.0,
1525.0,1653.0,2005.0,1793.0,10554559.0,
1526.0,1653.0,2008.0,1786.0,10554562.0,
1526.0,1654.0,2014.0,1778.0,10554566.0,
1526.0,1653.0,2014.0,1773.0,10554570.0,
1526.0,1653.0,2016.0,1767.0,10554573.0,
1526.0,1652.0,2018.0,1763.0,10554577.0,
1527.0,1653.0,2020.0,1758.0,10554580.0,
1527.0,1653.0,2019.0,1753.0,10554584.0,
1527.0,1653.0,2019.0,1748.0,10554588.0,
1526.0,1652.0,2020.0,1744.0,10554591.0,
1528.0,1651.0,2020.0,1739.0,10554595.0,
1527.0,1652.0,2023.0,1736.0,10554599.0,
1526.0,1652.0,2025.0,1733.0,10554602.0,
1527.0,1650.0,2026.0,1731.0,10554606.0,
1528.0,1653.0,2027.0,1727.0,10554610.0,
1527.0,1652.0,2024.0,1729.0,10554613.0,
1527.0,1655.0,2029.0,1729.0,10554617.0,
1527.0,1652.0,2031.0,1731.0,10554620.0,
1528.0,1652.0,2030.0,1733.0,10554624.0,
1528.0,1652.0,2031.0,1734.0,10554628.0,
1528.0,1651.0,2029.0,1737.0,10554631.0,
1528.0,1652.0,2031.0,1739.0,10554635.0,
1535.0,1651.0,2029.0,1747.0,10554639.0,
1528.0,1649.0,2029.0,1753.0,10554642.0,
1528.0,1650.0,2028.0,1762.0,10554646.0,
1528.0,1651.0,2028.0,1767.0,10554650.0,
1528.0,1651.0,2026.0,1775.0,10554653.0,
1529.0,1650.0,2029.0,1780.0,10554657.0,
1529.0,1654.0,2025.0,1787.0,10554660.0,
1532.0,1651.0,2023.0,1791.0,10554664.0,
1523.0,1649.0,2022.0,1800.0,10554668.0,
1529.0,1650.0,2023.0,1801.0,10554671.0,
1530.0,1650.0,2020.0,1807.0,10554675.0,
1532.0,1650.0,2017.0,1809.0,10554679.0,
1530.0,1651.0,2013.0,1813.0,10554682.0,
1529.0,1650.0,2014.0,1814.0,10554686.0,
1531.0,1650.0,2010.0,1819.0,10554689.0,
1529.0,1650.0,2008.0,1816.0,10554693.0,
1531.0,1650.0,2005.0,1820.0,10554697.0,
1529.0,1649.0,2007.0,1821.0,10554700.0,
1529.0,1649.0,1997.0,1820.0,10554704.0,
1530.0,1650.0,1999.0,1821.0,10554708.0,
1531.0,1650.0,1992.0,1823.0,10554711.0,
1530.0,1649.0,1993.0,1823.0,10554715.0,
1531.0,1648.0,1988.0,1824.0,10554719.0,
1530.0,1650.0,1986.0,1827.0,10554722.0,
1531.0,1649.0,1982.0,1828.0,10554726.0,
1531.0,1651.0,1983.0,1830.0,10554729.0,
1531.0,1648.0,1985.0,1830.0,10554733.0,
1532.0,1648.0,1982.0,1832.0,10554737.0,
1531.0,1649.0,1983.0,1837.0,10554740.0,
1532.0,1649.0,1984.0,1838.0,10554744.0,
1536.0,1649.0,1985.0,1840.0,10554748.0,
1532.0,1651.0,1988.0,1845.0,10554751.0,
1532.0,1647.0,1987.0,1848.0,10554755.0,
1532.0,1648.0,1990.0,1852.0,10554759.0,
1532.0,1651.0,1991.0,1852.0,10554762.0,
1532.0,1649.0,1993.0,1854.0,10554766.0,
1532.0,1649.0,1994.0,1855.0,10554769.0,
1532.0,1648.0,1997.0,1857.0,10554773.0,
1529.0,1649.0,1997.0,1861.0,10554777.0,
1532.0,1649.0,2001.0,1866.0,10554780.0,
1533.0,1648.0,2001.0,1867.0,10554784.0,
1533.0,1648.0,2000.0,1871.0,10554788.0,
1532.0,1648.0,2000.0,1877.0,10554791.0,
1538.0,1648.0,2001.0,1878.0,10554795.0,
1531.0,1648.0,2000.0,1886.0,10554799.0,
1529.0,1649.0,2001.0,1888.0,10554802.0,
1533.0,1648.0,2001.0,1898.0,10554806.0,
1534.0,1648.0,2000.0,1904.0,10554809.0,
1533.0,1653.0,2001.0,1913.0,10554813.0,
1535.0,1648.0,2000.0,1924.0,10554817.0,
1534.0,1652.0,2003.0,1939.0,10554820.0,
1534.0,1650.0,2000.0,1952.0,10554824.0,
1534.0,1648.0,2003.0,1967.0,10554828.0,
1535.0,1649.0,2007.0,1982.0,10554831.0,
1534.0,1648.0,2009.0,1998.0,10554835.0,
1537.0,1648.0,2015.0,2017.0,10554839.0,
1535.0,1648.0,2019.0,2034.0,10554842.0,
1535.0,1648.0,2029.0,2053.0,10554846.0,
1535.0,1649.0,2039.0,2069.0,10554849.0,
1534.0,1649.0,2047.0,2092.0,10554853.0,
1535.0,1650.0,2060.0,2110.0,10554857.0,
1536.0,1649.0,2072.0,2134.0,10554860.0,
1536.0,1648.0,2089.0,2150.0,10554864.0,
1536.0,1649.0,2097.0,2171.0,10554868.0,
1536.0,1648.0,2113.0,2189.0,10554871.0,
1536.0,1648.0,2127.0,2207.0,10554875.0,
1537.0,1649.0,2141.0,2225.0,10554879.0,
1536.0,1648.0,2155.0,2244.0,10554882.0,
1538.0,1648.0,2169.0,2260.0,10554886.0,
1537.0,1654.0,2185.0,2276.0,10554889.0,
1537.0,1647.0,2198.0,2289.0,10554893.0,
1537.0,1649.0,2213.0,2303.0,10554897.0,
1537.0,1647.0,2227.0,2312.0,10554900.0,
1537.0,1648.0,2241.0,2321.0,10554904.0,
1538.0,1648.0,2253.0,2328.0,10554908.0,
1538.0,1647.0,2265.0,2337.0,10554911.0,
1538.0,1647.0,2275.0,2341.0,10554915.0,
1539.0,1648.0,2281.0,2349.0,10554918.0,
1538.0,1648.0,2288.0,2353.0,10554922.0,
1539.0,1648.0,2298.0,2357.0,10554926.0,
1538.0,1648.0,2301.0,2359.0,10554929.0,
1539.0,1648.0,2305.0,2357.0,10554933.0,
1539.0,1647.0,2306.0,2357.0,10554937.0,
1540.0,1647.0,2306.0,2356.0,10554940.0,
1539.0,1648.0,2307.0,2353.0,10554944.0,
1540.0,1645.0,2304.0,2349.0,10554948.0,
1540.0,1648.0,2303.0,2346.0,10554951.0,
1539.0,1648.0,2298.0,2341.0,10554955.0,
1541.0,1648.0,2293.0,2337.0,10554958.0,
1540.0,1648.0,2289.0,2328.0,10554962.0,
1540.0,1648.0,2280.0,2321.0,10554966.0,
1540.0,1648.0,2274.0,2313.0,10554969.0,
1540.0,1648.0,2266.0,2302.0,10554973.0,
1543.0,1648.0,2258.0,2291.0,10554977.0,
1541.0,1649.0,2248.0,2284.0,10554980.0,
1541.0,1648.0,2238.0,2262.0,10554984.0,
1541.0,1648.0,2226.0,2261.0,10554988.0,
1542.0,1648.0,2215.0,2251.0,10554991.0,
1542.0,1648.0,2203.0,2242.0,10554995.0,
1541.0,1648.0,2194.0,2230.0,10554998.0,
1542.0,1648.0,2185.0,2220.0,10555002.0,
1541.0,1648.0,2175.0,2212.0,10555006.0,
1544.0,1648.0,2165.0,2204.0,10555009.0,
1542.0,1648.0,2154.0,2194.0,10555013.0,
1544.0,1648.0,2147.0,2185.0,10555017.0,
1547.0,1648.0,2134.0,2180.0,10555020.0,
1541.0,1648.0,2126.0,2166.0,10555024.0,
1548.0,1648.0,2117.0,2164.0,10555028.0,
1542.0,1648.0,2105.0,2157.0,10555031.0,
1542.0,1648.0,2096.0,2150.0,10555035.0,
1543.0,1647.0,2089.0,2139.0,10555038.0,
1544.0,1647.0,2081.0,2120.0,10555042.0,
1542.0,1647.0,2076.0,2120.0,10555046.0,
1543.0,1648.0,2066.0,2112.0,10555049.0,
1543.0,1648.0,2061.0,2106.0,10555053.0,
1543.0,1648.0,2054.0,2090.0,10555057.0,
1539.0,1647.0,2048.0,2081.0,10555060.0,
1544.0,1647.0,2042.0,2072.0,10555064.0,
1545.0,1648.0,2036.0,2060.0,10555068.0,
1545.0,1646.0,2031.0,2047.0,10555071.0,
1545.0,1647.0,2025.0,2034.0,10555075.0,
1545.0,1647.0,2019.0,2022.0,10555078.0,
1544.0,1648.0,2016.0,2012.0,10555082.0,
1545.0,1647.0,2012.0,2001.0,10555086.0,
1545.0,1648.0,2006.0,1992.0,10555089.0,
1546.0,1647.0,2006.0,1983.0,10555093.0,
1546.0,1642.0,2001.0,1976.0,10555097.0,
1545.0,1647.0,1997.0,1969.0,10555100.0,
1546.0,1647.0,1995.0,1961.0,10555104.0,
1546.0,1647.0,1992.0,1955.0,10555107.0,
1545.0,1647.0,1989.0,1951.0,10555111.0,
1546.0,1646.0,1985.0,1944.0,10555115.0,
1547.0,1649.0,1984.0,1939.0,10555118.0,
1547.0,1647.0,1984.0,1933.0,10555122.0,
1545.0,1648.0,1979.0,1926.0,10555126.0,
1546.0,1647.0,1977.0,1920.0,10555129.0,
1547.0,1646.0,1975.0,1917.0,10555133.0,
1546.0,1648.0,1975.0,1912.0,10555137.0,
1547.0,1647.0,1974.0,1912.0,10555140.0,
1546.0,1646.0,1973.0,1899.0,10555144.0,
1547.0,1647.0,1974.0,1904.0,10555147.0,
1548.0,1647.0,1976.0,1903.0,10555151.0,
1549.0,1647.0,1978.0,1897.0,10555155.0,
1547.0,1647.0,1980.0,1899.0,10555158.0,
1547.0,1647.0,1980.0,1899.0,10555162.0,
1547.0,1647.0,1986.0,1899.0,10555166.0,
1542.0,1647.0,1987.0,1902.0,10555169.0,
1548.0,1647.0,1990.0,1898.0,10555173.0,
1548.0,1647.0,1990.0,1899.0,10555177.0,
1547.0,1648.0,1998.0,1902.0,10555180.0,
1547.0,1648.0,2000.0,1901.0,10555184.0,
1554.0,1647.0,2002.0,1899.0,10555187.0,
1548.0,1646.0,2006.0,1901.0,10555191.0,
1548.0,1647.0,2010.0,1903.0,10555195.0,
1550.0,1646.0,2011.0,1905.0,10555198.0,
1548.0,1648.0,2018.0,1908.0,10555202.0,
1548.0,1647.0,2024.0,1909.0,10555206.0,
1549.0,1647.0,2027.0,1917.0,10555209.0,
1549.0,1645.0,2032.0,1916.0,10555213.0,
1549.0,1647.0,2039.0,1920.0,10555217.0,
1549.0,1646.0,2045.0,1922.0,10555220.0,
1548.0,1646.0,2049.0,1923.0,10555224.0,
1550.0,1647.0,2055.0,1926.0,10555227.0,
1549.0,1647.0,2058.0,1928.0,10555231.0,
1549.0,1646.0,2064.0,1928.0,10555235.0,
1549.0,1646.0,2066.0,1930.0,10555238.0,
1550.0,1646.0,2068.0,1931.0,10555242.0,
1551.0,1647.0,2071.0,1935.0,10555246.0,
1550.0,1647.0,2074.0,1937.0,10555249.0,
1550.0,1646.0,2077.0,1941.0,10555253.0,
1550.0,1646.0,2079.0,1940.0,10555257.0,
1551.0,1647.0,2077.0,1947.0,10555260.0,
1550.0,1646.0,2081.0,1952.0,10555264.0,
1551.0,1647.0,2080.0,1954.0,10555267.0,
1551.0,1645.0,2079.0,1959.0,10555271.0,
1551.0,1645.0,2078.0,1962.0,10555275.0,
1550.0,1645.0,2077.0,1965.0,10555278.0,
1552.0,1646.0,2076.0,1967.0,10555282.0,
1552.0,1646.0,2071.0,1968.0,10555286.0,
1552.0,1647.0,2072.0,1972.0,10555289.0,
1552.0,1644.0,2071.0,1976.0,10555293.0,
1552.0,1646.0,2069.0,1978.0,10555296.0,
1551.0,1646.0,2069.0,1980.0,10555300.0,
1553.0,1646.0,2066.0,1979.0,10555304.0,
1553.0,1646.0,2061.0,1980.0,10555307.0,
1552.0,1646.0,2053.0,1980.0,10555311.0,
1552.0,1646.0,2056.0,1978.0,10555315.0,
1553.0,1646.0,2049.0,1979.0,10555318.0,
1552.0,1645.0,2045.0,1980.0,10555322.0,
1552.0,1645.0,2042.0,1977.0,10555326.0,
1552.0,1645.0,2039.0,1979.0,10555329.0,
1547.0,1646.0,2035.0,1976.0,10555333.0,
1553.0,1646.0,2031.0,1979.0,10555336.0,
1554.0,1644.0,2023.0,1974.0,10555340.0,
1553.0,1646.0,2020.0,1972.0,10555344.0,
1554.0,1644.0,2010.0,1972.0,10555347.0,
1553.0,1647.0,2011.0,1975.0,10555351.0,
1554.0,1649.0,2009.0,1972.0,10555355.0,
1555.0,1646.0,2004.0,1976.0,10555358.0,
1554.0,1641.0,2000.0,1972.0,10555362.0,
1554.0,1646.0,1997.0,1970.0,10555366.0,
1550.0,1646.0,1995.0,1966.0,10555369.0,
1554.0,1645.0,1993.0,1962.0,10555373.0,
1555.0,1646.0,1988.0,1956.0,10555376.0,
1554.0,1646.0,1986.0,1951.0,10555380.0,
1554.0,1646.0,1982.0,1941.0,10555384.0,
1553.0,1647.0,1980.0,1935.0,10555387.0,
1554.0,1647.0,1979.0,1926.0,10555391.0,
1555.0,1647.0,1976.0,1916.0,10555395.0,
1555.0,1649.0,1971.0,1910.0,10555398.0,
1555.0,1647.0,1972.0,1898.0,10555402.0,
1556.0,1647.0,1971.0,1891.0,10555406.0,
1554.0,1647.0,1970.0,1881.0,10555409.0,
1555.0,1649.0,1969.0,1870.0,10555413.0,
1555.0,1648.0,1972.0,1860.0,10555416.0,
1556.0,1648.0,1968.0,1848.0,10555420.0,
1557.0,1648.0,1971.0,1836.0,10555424.0,
1556.0,1647.0,1969.0,1823.0,10555427.0,
1555.0,1648.0,1970.0,1813.0,10555431.0,
1557.0,1648.0,1970.0,1800.0,10555435.0,
1556.0,1648.0,1971.0,1792.0,10555438.0,
1556.0,1648.0,1972.0,1787.0,10555442.0,
1555.0,1647.0,1973.0,1775.0,10555446.0,
1557.0,1652.0,1975.0,1764.0,10555449.0,
1562.0,1647.0,1978.0,1754.0,10555453.0,
1557.0,1642.0,1980.0,1751.0,10555456.0,
1557.0,1643.0,1985.0,1748.0,10555460.0,
1556.0,1647.0,1989.0,1745.0,10555464.0,
1557.0,1646.0,1992.0,1743.0,10555467.0,
1557.0,1647.0,2003.0,1742.0,10555471.0,
1557.0,1647.0,2000.0,1744.0,10555475.0,
1557.0,1646.0,2006.0,1746.0,10555478.0,
1557.0,1646.0,2010.0,1748.0,10555482.0,
1559.0,1646.0,2011.0,1749.0,10555485.0,
1557.0,1646.0,2020.0,1755.0,10555489.0,
1557.0,1646.0,2022.0,1763.0,10555493.0,
1558.0,1646.0,2026.0,1766.0,10555496.0,
1557.0,1646.0,2034.0,1778.0,10555500.0,
1557.0,1646.0,2039.0,1786.0,10555504.0,
1555.0,1646.0,2043.0,1795.0,10555507.0,
1558.0,1646.0,2049.0,1804.0,10555511.0,
1559.0,1646.0,2050.0,1814.0,10555515.0,
1558.0,1648.0,2057.0,1819.0,10555518.0,
1558.0,1646.0,2061.0,1831.0,10555522.0,
1559.0,1645.0,2067.0,1838.0,10555525.0,
1558.0,1646.0,2070.0,1847.0,10555529.0,
1563.0,1646.0,2075.0,1854.0,10555533.0,
1558.0,1648.0,2078.0,1862.0,10555536.0,
1558.0,1645.0,2083.0,1868.0,10555540.0,
1557.0,1646.0,2087.0,1874.0,10555544.0,
1559.0,1646.0,2091.0,1879.0,10555547.0,
1559.0,1647.0,2092.0,1890.0,10555551.0,
1559.0,1646.0,2097.0,1891.0,10555555.0,
1557.0,1646.0,2096.0,1895.0,10555558.0,
1556.0,1646.0,2095.0,1897.0,10555562.0,
1558.0,1646.0,2093.0,1899.0,10555565.0,
1566.0,1645.0,2093.0,1904.0,10555569.0,
1560.0,1646.0,2090.0,1906.0,10555573.0,
1561.0,1646.0,2090.0,1905.0,10555576.0,
1560.0,1644.0,2086.0,1907.0,10555580.0,
1560.0,1647.0,2081.0,1904.0,10555584.0,
1560.0,1646.0,2073.0,1905.0,10555587.0,
1561.0,1648.0,2076.0,1904.0,10555591.0,
1561.0,1647.0,2069.0,1899.0,10555595.0,
1560.0,1647.0,2065.0,1897.0,10555598.0,
1560.0,1642.0,2061.0,1896.0,10555602.0,
1562.0,1647.0,2057.0,1890.0,10555605.0,
1558.0,1647.0,2048.0,1886.0,10555609.0,
1562.0,1647.0,2041.0,1884.0,10555613.0,
1568.0,1648.0,2036.0,1880.0,10555616.0,
1561.0,1647.0,2031.0,1877.0,10555620.0,
1561.0,1648.0,2022.0,1869.0,10555624.0,
1561.0,1647.0,2015.0,1866.0,10555627.0,
1561.0,1647.0,2009.0,1860.0,10555631.0,
1561.0,1644.0,2001.0,1851.0,10555635.0,
1562.0,1646.0,1995.0,1846.0,10555638.0,
1562.0,1648.0,1989.0,1836.0,10555642.0,
1562.0,1648.0,1978.0,1831.0,10555645.0,
1561.0,1646.0,1974.0,1821.0,10555649.0,
1562.0,1647.0,1967.0,1815.0,10555653.0,
1562.0,1646.0,1961.0,1805.0,10555656.0,
1562.0,1647.0,1956.0,1798.0,10555660.0,
1562.0,1647.0,1949.0,1790.0,10555664.0,
1563.0,1647.0,1943.0,1784.0,10555667.0,
1557.0,1646.0,1941.0,1779.0,10555671.0,
1562.0,1646.0,1935.0,1773.0,10555675.0,
1564.0,1647.0,1935.0,1768.0,10555678.0,
1562.0,1647.0,1930.0,1768.0,10555682.0,
1563.0,1646.0,1926.0,1764.0,10555685.0,
1563.0,1647.0,1923.0,1764.0,10555689.0,
1564.0,1647.0,1922.0,1757.0,10555693.0,
1563.0,1646.0,1917.0,1757.0,10555696.0,
1563.0,1646.0,1913.0,1756.0,10555700.0,
1564.0,1646.0,1913.0,1756.0,10555704.0,
1562.0,1647.0,1910.0,1756.0,10555707.0,
1564.0,1646.0,1910.0,1760.0,10555711.0,
1564.0,1647.0,1909.0,1759.0,10555714.0,
1564.0,1645.0,1910.0,1763.0,10555718.0,
1563.0,1652.0,1912.0,1767.0,10555722.0,
1563.0,1645.0,1915.0,1772.0,10555725.0,
1565.0,1645.0,1916.0,1779.0,10555729.0,
1563.0,1647.0,1920.0,1789.0,10555733.0,
1570.0,1646.0,1924.0,1800.0,10555736.0,
1564.0,1646.0,1924.0,1814.0,10555740.0,
1564.0,1645.0,1932.0,1828.0,10555744.0,
1564.0,1646.0,1932.0,1845.0,10555747.0,
1565.0,1646.0,1937.0,1862.0,10555751.0,
1565.0,1647.0,1941.0,1882.0,10555754.0,
1564.0,1647.0,1946.0,1902.0,10555758.0,
1565.0,1646.0,1955.0,1922.0,10555762.0,
1565.0,1646.0,1962.0,1942.0,10555765.0,
1565.0,1647.0,1970.0,1968.0,10555769.0,
1564.0,1646.0,1983.0,1989.0,10555773.0,
1565.0,1646.0,1996.0,2013.0,10555776.0,
1565.0,1645.0,2011.0,2030.0,10555780.0,
1561.0,1647.0,2024.0,2066.0,10555784.0,
1571.0,1647.0,2043.0,2093.0,10555787.0,
1565.0,1647.0,2059.0,2121.0,10555791.0,
1568.0,1647.0,2074.0,2148.0,10555794.0,
1566.0,1647.0,2096.0,2178.0,10555798.0,
1566.0,1647.0,2116.0,2203.0,10555802.0,
1565.0,1647.0,2134.0,2230.0,10555805.0,
1566.0,1648.0,2158.0,2252.0,10555809.0,
1565.0,1647.0,2176.0,2278.0,10555813.0,
1566.0,1649.0,2195.0,2298.0,10555816.0,
1567.0,1647.0,2217.0,2321.0,10555820.0,
1567.0,1646.0,2237.0,2340.0,10555824.0,
1567.0,1647.0,2253.0,2360.0,10555827.0,
1566.0,1648.0,2271.0,2376.0,10555831.0,
1568.0,1647.0,2286.0,2394.0,10555834.0,
1567.0,1648.0,2303.0,2410.0,10555838.0,
1568.0,1646.0,2320.0,2429.0,10555842.0,
1568.0,1648.0,2332.0,2439.0,10555845.0,
1567.0,1648.0,2346.0,2457.0,10555849.0,
1569.0,1647.0,2357.0,2462.0,10555853.0,
1568.0,1648.0,2367.0,2475.0,10555856.0,
1567.0,1646.0,2377.0,2484.0,10555860.0,
1567.0,1647.0,2383.0,2494.0,10555864.0,
1568.0,1647.0,2389.0,2493.0,10555867.0,
1569.0,1647.0,2392.0,2498.0,10555871.0,
1565.0,1647.0,2396.0,2499.0,10555874.0,
1568.0,1647.0,2395.0,2505.0,10555878.0,
1570.0,1647.0,2395.0,2508.0,10555882.0,
1569.0,1647.0,2393.0,2505.0,10555885.0,
1570.0,1648.0,2389.0,2509.0,10555889.0,
1569.0,1647.0,2386.0,2508.0,10555893.0,
1570.0,1647.0,2382.0,2508.0,10555896.0,
1570.0,1647.0,2373.0,2507.0,10555900.0,
1569.0,1648.0,2363.0,2504.0,10555903.0,
1569.0,1646.0,2358.0,2501.0,10555907.0,
1569.0,1647.0,2347.0,2504.0,10555911.0,
1569.0,1648.0,2339.0,2499.0,10555914.0,
1569.0,1646.0,2331.0,2501.0,10555918.0,
1569.0,1646.0,2320.0,2498.0,10555922.0,
1571.0,1647.0,2311.0,2494.0,10555925.0,
1570.0,1647.0,2297.0,2490.0,10555929.0,
1570.0,1646.0,2294.0,2487.0,10555933.0,
1571.0,1647.0,2285.0,2482.0,10555936.0,
1571.0,1647.0,2276.0,2481.0,10555940.0,
1571.0,1646.0,2268.0,2474.0,10555943.0,
1571.0,1647.0,2257.0,2468.0,10555947.0,
1571.0,1646.0,2246.0,2462.0,10555951.0,
1572.0,1647.0,2236.0,2455.0,10555954.0,
1572.0,1647.0,2229.0,2450.0,10555958.0,
1572.0,1647.0,2222.0,2444.0,10555962.0,
1572.0,1647.0,2215.0,2438.0,10555965.0,
1571.0,1647.0,2211.0,2434.0,10555969.0,
1572.0,1647.0,2204.0,2430.0,10555973.0,
1573.0,1645.0,2201.0,2422.0,10555976.0,
1572.0,1646.0,2200.0,2419.0,10555980.0,
1572.0,1646.0,2197.0,2409.0,10555983.0,
1572.0,1646.0,2197.0,2405.0,10555987.0,
1572.0,1647.0,2198.0,2402.0,10555991.0,
1573.0,1650.0,2196.0,2391.0,10555994.0,
1572.0,1642.0,2197.0,2383.0,10555998.0,
1580.0,1646.0,2195.0,2371.0,10556002.0,
1572.0,1647.0,2194.0,2362.0,10556005.0,
1573.0,1645.0,2189.0,2351.0,10556009.0,
1572.0,1647.0,2186.0,2340.0,10556013.0,
1574.0,1646.0,2184.0,2328.0,10556016.0,
1572.0,1646.0,2178.0,2320.0,10556020.0,
1574.0,1647.0,2172.0,2309.0,10556023.0,
1577.0,1647.0,2167.0,2298.0,10556027.0,
1574.0,1647.0,2162.0,2292.0,10556031.0,
1574.0,1646.0,2159.0,2282.0,10556034.0,
1574.0,1647.0,2148.0,2274.0,10556038.0,
1574.0,1646.0,2145.0,2260.0,10556042.0,
1574.0,1647.0,2138.0,2249.0,10556045.0,
1575.0,1645.0,2133.0,2242.0,10556049.0,
1574.0,1646.0,2125.0,2232.0,10556053.0,
1574.0,1645.0,2119.0,2223.0,10556056.0,
1574.0,1645.0,2114.0,2217.0,10556060.0,
1575.0,1646.0,2105.0,2207.0,10556063.0,
1575.0,1646.0,2098.0,2201.0,10556067.0,
1574.0,1647.0,2094.0,2196.0,10556071.0,
1575.0,1646.0,2086.0,2189.0,10556074.0,
1575.0,1647.0,2081.0,2185.0,10556078.0,
1580.0,1646.0,2078.0,2179.0,10556082.0,
1575.0,1648.0,2073.0,2173.0,10556085.0,
1575.0,1646.0,2071.0,2170.0,10556089.0,
1574.0,1645.0,2067.0,2162.0,10556093.0,
1575.0,1647.0,2064.0,2153.0,10556096.0,
1576.0,1645.0,2061.0,2150.0,10556100.0,
1576.0,1646.0,2058.0,2140.0,10556103.0,
1576.0,1647.0,2053.0,2133.0,10556107.0,
1576.0,1646.0,2056.0,2126.0,10556111.0,
1576.0,1649.0,2052.0,2122.0,10556114.0,
1576.0,1646.0,2053.0,2115.0,10556118.0,
1575.0,1647.0,2053.0,2111.0,10556122.0,
1576.0,1645.0,2056.0,2102.0,10556125.0,
1576.0,1646.0,2057.0,2103.0,10556129.0,
1577.0,1646.0,2057.0,2097.0,10556132.0,
1573.0,1647.0,2061.0,2093.0,10556136.0,
1575.0,1646.0,2063.0,2090.0,10556140.0,
1576.0,1646.0,2067.0,2089.0,10556143.0,
1577.0,1646.0,2068.0,2076.0,10556147.0,
1577.0,1646.0,2069.0,2074.0,10556151.0,
1575.0,1646.0,2066.0,2070.0,10556154.0,
1577.0,1647.0,2071.0,2065.0,10556158.0,
1577.0,1646.0,2070.0,2064.0,10556162.0,
1576.0,1645.0,2071.0,2058.0,10556165.0,
1577.0,1646.0,2072.0,2056.0,10556169.0,
1578.0,1647.0,2073.0,2048.0,10556172.0,
1576.0,1645.0,2070.0,2042.0,10556176.0,
1577.0,1643.0,2072.0,2041.0,10556180.0,
1578.0,1646.0,2075.0,2033.0,10556183.0,
1578.0,1648.0,2070.0,2030.0,10556187.0,
1577.0,1646.0,2073.0,2023.0,10556191.0,
1576.0,1646.0,2070.0,2018.0,10556194.0,
1578.0,1643.0,2069.0,2013.0,10556198.0,
1578.0,1643.0,2070.0,1999.0,10556202.0,
1577.0,1646.0,2065.0,1992.0,10556205.0,
1572.0,1645.0,2064.0,1990.0,10556209.0,
1576.0,1645.0,2061.0,1983.0,10556212.0,
1578.0,1646.0,2056.0,1979.0,10556216.0,
1578.0,1646.0,2055.0,1972.0,10556220.0,
1579.0,1646.0,2051.0,1968.0,10556223.0,
1578.0,1647.0,2049.0,1959.0,10556227.0,
1578.0,1645.0,2047.0,1959.0,10556231.0,
1578.0,1645.0,2045.0,1951.0,10556234.0,
1578.0,1646.0,2041.0,1949.0,10556238.0,
1578.0,1646.0,2040.0,1943.0,10556242.0,
1580.0,1646.0,2039.0,1941.0,10556245.0,
1579.0,1645.0,2035.0,1933.0,10556249.0,
1579.0,1645.0,2028.0,1940.0,10556252.0,
1579.0,1646.0,2025.0,1933.0,10556256.0,
1579.0,1646.0,2021.0,1929.0,10556260.0,
1579.0,1645.0,2020.0,1927.0,10556263.0,
1580.0,1643.0,2018.0,1925.0,10556267.0,
1578.0,1646.0,2014.0,1923.0,10556271.0,
1578.0,1645.0,2010.0,1922.0,10556274.0,
1579.0,1646.0,2004.0,1925.0,10556278.0,
1573.0,1645.0,2005.0,1924.0,10556282.0,
1580.0,1645.0,2002.0,1922.0,10556285.0,
1579.0,1645.0,1997.0,1922.0,10556289.0,
1580.0,1646.0,1995.0,1922.0,10556292.0,
1580.0,1645.0,1991.0,1920.0,10556296.0,
1581.0,1646.0,1988.0,1919.0,10556300.0,
1574.0,1645.0,1989.0,1916.0,10556303.0,
1581.0,1646.0,1988.0,1917.0,10556307.0,
1580.0,1645.0,1987.0,1911.0,10556311.0,
1577.0,1647.0,1983.0,1911.0,10556314.0,
1579.0,1646.0,1982.0,1910.0,10556318.0,
1580.0,1645.0,1980.0,1911.0,10556321.0,
1582.0,1645.0,1980.0,1910.0,10556325.0,
1582.0,1645.0,1980.0,1909.0,10556329.0,
1581.0,1646.0,1980.0,1912.0,10556332.0,
1580.0,1644.0,1980.0,1911.0,10556336.0,
1580.0,1646.0,1980.0,1912.0,10556340.0,
1584.0,1645.0,1979.0,1911.0,10556343.0,
1580.0,1644.0,1982.0,1912.0,10556347.0,
1580.0,1644.0,1983.0,1911.0,10556351.0,
1581.0,1645.0,1984.0,1910.0,10556354.0,
1586.0,1645.0,1984.0,1910.0,10556358.0,
1580.0,1645.0,1987.0,1908.0,10556361.0,
1581.0,1643.0,1987.0,1903.0,10556365.0,
1581.0,1645.0,1989.0,1906.0,10556369.0,
1581.0,1644.0,1988.0,1900.0,10556372.0,
1582.0,1644.0,1987.0,1896.0,10556376.0,
1581.0,1644.0,1990.0,1894.0,10556380.0,
1580.0,1645.0,1989.0,1888.0,10556383.0,
1583.0,1645.0,1991.0,1886.0,10556387.0,
1581.0,1645.0,1995.0,1883.0,10556391.0,
1578.0,1644.0,1997.0,1881.0,10556394.0,
1582.0,1643.0,1997.0,1877.0,10556398.0,
1581.0,1643.0,2001.0,1868.0,10556401.0,
1581.0,1643.0,2000.0,1861.0,10556405.0,
1582.0,1644.0,2004.0,1857.0,10556409.0,
1582.0,1644.0,2005.0,1854.0,10556412.0,
1581.0,1649.0,2004.0,1850.0,10556416.0,
1581.0,1644.0,2007.0,1842.0,10556420.0,
1582.0,1644.0,2006.0,1837.0,10556423.0,
1583.0,1644.0,2007.0,1833.0,10556427.0,
1581.0,1644.0,2008.0,1831.0,10556431.0,
1582.0,1644.0,2007.0,1828.0,10556434.0,
1582.0,1645.0,2006.0,1825.0,10556438.0,
1581.0,1644.0,2006.0,1819.0,10556441.0,
1583.0,1644.0,2006.0,1816.0,10556445.0,
1582.0,1644.0,2007.0,1811.0,10556449.0,
1582.0,1643.0,2007.0,1812.0,10556452.0,
1582.0,1645.0,2004.0,1809.0,10556456.0,
1582.0,1643.0,2004.0,1813.0,10556460.0,
1582.0,1643.0,2004.0,1806.0,10556463.0,
1583.0,1643.0,2002.0,1808.0,10556467.0,
1583.0,1645.0,2002.0,1807.0,10556471.0,
1584.0,1643.0,2002.0,1806.0,10556474.0,
1587.0,1643.0,1998.0,1810.0,10556478.0,
1583.0,1642.0,1996.0,1811.0,10556481.0,
1583.0,1644.0,1997.0,1812.0,10556485.0,
1583.0,1642.0,1997.0,1813.0,10556489.0,
1583.0,1642.0,1993.0,1810.0,10556492.0,
1582.0,1642.0,1994.0,1812.0,10556496.0,
1584.0,1643.0,1992.0,1809.0,10556500.0,
1583.0,1643.0,1994.0,1812.0,10556503.0,
1582.0,1643.0,1994.0,1811.0,10556507.0,
1577.0,1643.0,1993.0,1812.0,10556511.0,
1583.0,1638.0,1991.0,1815.0,10556514.0,
1581.0,1643.0,1991.0,1815.0,10556518.0,
1581.0,1642.0,1992.0,1814.0,10556521.0,
1584.0,1643.0,1992.0,1813.0,10556525.0,
1584.0,1643.0,1995.0,1815.0,10556529.0,
1585.0,1643.0,1991.0,1813.0,10556532.0,
1584.0,1642.0,1990.0,1811.0,10556536.0,
1583.0,1642.0,1992.0,1806.0,10556540.0,
1583.0,1643.0,1992.0,1805.0,10556543.0,
1583.0,1643.0,1992.0,1804.0,10556547.0,
1584.0,1642.0,1994.0,1803.0,10556550.0,
1583.0,1642.0,1989.0,1803.0,10556554.0,
1584.0,1640.0,1992.0,1801.0,10556558.0,
1584.0,1642.0,1992.0,1802.0,10556561.0,
1583.0,1642.0,1991.0,1800.0,10556565.0,
1587.0,1642.0,1990.0,1801.0,10556569.0,
1584.0,1641.0,1990.0,1799.0,10556572.0,
1584.0,1643.0,1986.0,1797.0,10556576.0,
1583.0,1641.0,1986.0,1798.0,10556580.0,
1583.0,1642.0,1983.0,1797.0,10556583.0,
1582.0,1641.0,1983.0,1798.0,10556587.0,
1584.0,1643.0,1981.0,1803.0,10556590.0,
1584.0,1641.0,1978.0,1804.0,10556594.0,
1583.0,1641.0,1978.0,1808.0,10556598.0,
1584.0,1642.0,1976.0,1810.0,10556601.0,
1585.0,1642.0,1977.0,1809.0,10556605.0,
1583.0,1643.0,1975.0,1811.0,10556609.0,
1584.0,1641.0,1978.0,1810.0,10556612.0,
1584.0,1642.0,1978.0,1808.0,10556616.0,
1583.0,1642.0,1980.0,1811.0,10556620.0,
1578.0,1642.0,1981.0,1809.0,10556623.0,
1585.0,1642.0,1980.0,1809.0,10556627.0,
1585.0,1642.0,1978.0,1812.0,10556630.0,
1584.0,1642.0,1980.0,1811.0,10556634.0,
1584.0,1643.0,1982.0,1809.0,10556638.0,
1586.0,1641.0,1978.0,1809.0,10556641.0,
1584.0,1642.0,1981.0,1809.0,10556645.0,
1584.0,1642.0,1985.0,1811.0,10556649.0,
1585.0,1642.0,1978.0,1812.0,10556652.0,
1581.0,1642.0,1981.0,1810.0,10556656.0,
1584.0,1641.0,1979.0,1811.0,10556660.0,
1585.0,1641.0,1979.0,1810.0,10556663.0,
1585.0,1641.0,1978.0,1810.0,10556667.0,
1581.0,1641.0,1981.0,1810.0,10556670.0,
1585.0,1642.0,1980.0,1809.0,10556674.0,
1585.0,1641.0,1976.0,1812.0,10556678.0,
1585.0,1641.0,1969.0,1810.0,10556681.0,
1584.0,1641.0,1975.0,1811.0,10556685.0,
1585.0,1641.0,1976.0,1815.0,10556689.0,
1586.0,1641.0,1975.0,1820.0,10556692.0,
1586.0,1642.0,1976.0,1827.0,10556696.0,
1585.0,1641.0,1976.0,1836.0,10556699.0,
1586.0,1641.0,1980.0,1841.0,10556703.0,
1586.0,1641.0,1976.0,1849.0,10556707.0,
1585.0,1641.0,1978.0,1859.0,10556710.0,
1585.0,1640.0,1980.0,1869.0,10556714.0,
1586.0,1641.0,1984.0,1883.0,10556718.0,
1585.0,1640.0,1987.0,1896.0,10556721.0,
1586.0,1641.0,1989.0,1910.0,10556725.0,
1584.0,1642.0,1995.0,1929.0,10556729.0,
1585.0,1641.0,1999.0,1948.0,10556732.0,
1586.0,1642.0,2005.0,1968.0,10556736.0,
1586.0,1642.0,2014.0,1990.0,10556739.0,
1586.0,1641.0,2019.0,2013.0,10556743.0,
1586.0,1641.0,2032.0,2040.0,10556747.0,
1585.0,1641.0,2045.0,2063.0,10556750.0,
1586.0,1640.0,2062.0,2092.0,10556754.0,
1586.0,1641.0,2070.0,2117.0,10556758.0,
1585.0,1641.0,2092.0,2144.0,10556761.0,
1586.0,1641.0,2101.0,2174.0,10556765.0,
1587.0,1641.0,2114.0,2200.0,10556769.0,
1587.0,1641.0,2131.0,2224.0,10556772.0,
1586.0,1640.0,2147.0,2250.0,10556776.0,
1586.0,1643.0,2164.0,2274.0,10556779.0,
1588.0,1642.0,2184.0,2296.0,10556783.0,
1581.0,1641.0,2201.0,2320.0,10556787.0,
1588.0,1642.0,2219.0,2343.0,10556790.0,
1587.0,1641.0,2234.0,2365.0,10556794.0,
1586.0,1642.0,2251.0,2384.0,10556798.0,
1587.0,1641.0,2265.0,2404.0,10556801.0,
1587.0,1641.0,2281.0,2422.0,10556805.0,
1588.0,1642.0,2295.0,2437.0,10556809.0,
1588.0,1642.0,2307.0,2451.0,10556812.0,
1588.0,1642.0,2318.0,2466.0,10556816.0,
1589.0,1642.0,2323.0,2479.0,10556819.0,
1587.0,1642.0,2337.0,2490.0,10556823.0,
1588.0,1644.0,2346.0,2501.0,10556827.0,
1587.0,1643.0,2350.0,2510.0,10556830.0,
1588.0,1640.0,2353.0,2513.0,10556834.0,
1588.0,1642.0,2355.0,2521.0,10556838.0,
1588.0,1642.0,2358.0,2523.0,10556841.0,
1588.0,1642.0,2356.0,2523.0,10556845.0,
1589.0,1642.0,2352.0,2527.0,10556849.0,
1589.0,1640.0,2347.0,2528.0,10556852.0,
1588.0,1642.0,2339.0,2527.0,10556856.0,
1589.0,1642.0,2335.0,2525.0,10556859.0,
1587.0,1643.0,2327.0,2515.0,10556863.0,
1588.0,1642.0,2319.0,2519.0,10556867.0,
1589.0,1641.0,2311.0,2515.0,10556870.0,
1590.0,1642.0,2304.0,2510.0,10556874.0,
1590.0,1642.0,2295.0,2509.0,10556878.0,
1589.0,1643.0,2287.0,2496.0,10556881.0,
1583.0,1645.0,2279.0,2487.0,10556885.0,
1590.0,1639.0,2268.0,2482.0,10556888.0,
1590.0,1643.0,2260.0,2472.0,10556892.0,
1590.0,1641.0,2253.0,2463.0,10556896.0,
1589.0,1643.0,2243.0,2465.0,10556899.0,
1589.0,1643.0,2237.0,2461.0,10556903.0,
1590.0,1642.0,2228.0,2458.0,10556907.0,
1590.0,1642.0,2219.0,2453.0,10556910.0,
1589.0,1642.0,2214.0,2453.0,10556914.0,
1587.0,1642.0,2206.0,2446.0,10556918.0,
1590.0,1643.0,2198.0,2447.0,10556921.0,
1590.0,1643.0,2193.0,2438.0,10556925.0,
1591.0,1642.0,2185.0,2435.0,10556928.0,
1590.0,1643.0,2176.0,2425.0,10556932.0,
1590.0,1646.0,2172.0,2418.0,10556936.0,
1590.0,1642.0,2164.0,2411.0,10556939.0,
1590.0,1646.0,2158.0,2400.0,10556943.0,
1591.0,1643.0,2153.0,2390.0,10556947.0,
1590.0,1639.0,2148.0,2384.0,10556950.0,
1590.0,1644.0,2143.0,2371.0,10556954.0,
1589.0,1644.0,2142.0,2362.0,10556958.0,
1591.0,1643.0,2137.0,2350.0,10556961.0,
1590.0,1638.0,2132.0,2340.0,10556965.0,
1591.0,1643.0,2129.0,2330.0,10556968.0,
1593.0,1645.0,2123.0,2319.0,10556972.0,
1590.0,1643.0,2117.0,2310.0,10556976.0,
1590.0,1643.0,2113.0,2303.0,10556979.0,
1591.0,1644.0,2109.0,2297.0,10556983.0,
1591.0,1643.0,2105.0,2282.0,10556987.0,
1591.0,1643.0,2100.0,2274.0,10556990.0,
1591.0,1645.0,2095.0,2261.0,10556994.0,
1591.0,1644.0,2090.0,2254.0,10556998.0,
1591.0,1643.0,2089.0,2243.0,10557001.0,
1592.0,1642.0,2084.0,2231.0,10557005.0,
1591.0,1643.0,2080.0,2225.0,10557008.0,
1592.0,1643.0,2077.0,2216.0,10557012.0,
1591.0,1643.0,2072.0,2208.0,10557016.0,
1590.0,1644.0,2066.0,2204.0,10557019.0,
1591.0,1644.0,2062.0,2198.0,10557023.0,
1591.0,1645.0,2060.0,2191.0,10557027.0,
1591.0,1644.0,2056.0,2192.0,10557030.0,
1591.0,1644.0,2057.0,2184.0,10557034.0,
1592.0,1644.0,2051.0,2178.0,10557038.0,
1592.0,1649.0,2052.0,2176.0,10557041.0,
1592.0,1644.0,2052.0,2176.0,10557045.0,
1592.0,1644.0,2053.0,2175.0,10557048.0,
1592.0,1644.0,2051.0,2172.0,10557052.0,
1592.0,1645.0,2050.0,2167.0,10557056.0,
1592.0,1645.0,2049.0,2171.0,10557059.0,
1592.0,1645.0,2049.0,2167.0,10557063.0,
1593.0,1644.0,2046.0,2162.0,10557067.0,
1591.0,1644.0,2046.0,2159.0,10557070.0,
1592.0,1644.0,2043.0,2155.0,10557074.0,
1594.0,1645.0,2041.0,2157.0,10557078.0,
1592.0,1644.0,2039.0,2148.0,10557081.0,
1592.0,1645.0,2040.0,2143.0,10557085.0,
1585.0,1645.0,2039.0,2138.0,10557088.0,
1593.0,1645.0,2037.0,2135.0,10557092.0,
1593.0,1645.0,2035.0,2130.0,10557096.0,
1592.0,1645.0,2036.0,2127.0,10557099.0,
1592.0,1644.0,2034.0,2123.0,10557103.0,
1594.0,1645.0,2036.0,2120.0,10557107.0,
1591.0,1645.0,2037.0,2116.0,10557110.0,
1593.0,1645.0,2037.0,2109.0,10557114.0,
1592.0,1645.0,2036.0,2104.0,10557117.0,
1594.0,1645.0,2039.0,2103.0,10557121.0,
1593.0,1646.0,2041.0,2105.0,10557125.0,
1592.0,1646.0,2040.0,2092.0,10557128.0,
1592.0,1646.0,2042.0,2086.0,10557132.0,
1593.0,1646.0,2043.0,2080.0,10557136.0,
1587.0,1645.0,2042.0,2075.0,10557139.0,
1593.0,1645.0,2041.0,2072.0,10557143.0,
1594.0,1645.0,2040.0,2064.0,10557147.0,
1592.0,1646.0,2039.0,2062.0,10557150.0,
1593.0,1645.0,2037.0,2056.0,10557154.0,
1593.0,1646.0,2038.0,2055.0,10557157.0,
1593.0,1646.0,2037.0,2057.0,10557161.0,
1594.0,1644.0,2036.0,2055.0,10557165.0,
1592.0,1646.0,2035.0,2051.0,10557168.0,
1593.0,1647.0,2032.0,2049.0,10557172.0,
1593.0,1646.0,2028.0,2050.0,10557176.0,
1594.0,1646.0,2027.0,2046.0,10557179.0,
1594.0,1647.0,2024.0,2044.0,10557183.0,
1594.0,1646.0,2022.0,2040.0,10557187.0,
1594.0,1647.0,2022.0,2039.0,10557190.0,
1593.0,1647.0,2016.0,2035.0,10557194.0,
1594.0,1649.0,2015.0,2031.0,10557197.0,
1591.0,1646.0,2017.0,2025.0,10557201.0,
1593.0,1647.0,2013.0,2021.0,10557205.0,
1594.0,1646.0,2012.0,2016.0,10557208.0,
1594.0,1647.0,2010.0,2010.0,10557212.0,
1594.0,1648.0,2006.0,2006.0,10557216.0,
1592.0,1649.0,2004.0,2003.0,10557219.0,
1593.0,1647.0,2001.0,1998.0,10557223.0,
1594.0,1648.0,1998.0,1992.0,10557227.0,
1599.0,1647.0,1993.0,1986.0,10557230.0,
1594.0,1648.0,1990.0,1985.0,10557234.0,
1593.0,1647.0,1988.0,1976.0,10557237.0,
1594.0,1649.0,1985.0,1976.0,10557241.0,
1593.0,1649.0,1983.0,1970.0,10557245.0,
1594.0,1649.0,1981.0,1967.0,10557248.0,
1595.0,1650.0,1982.0,1962.0,10557252.0,
1594.0,1650.0,1977.0,1959.0,10557256.0,
1596.0,1649.0,1979.0,1954.0,10557259.0,
1594.0,1649.0,1975.0,1949.0,10557263.0,
1594.0,1649.0,1971.0,1945.0,10557267.0,
1594.0,1647.0,1971.0,1944.0,10557270.0,
1594.0,1650.0,1970.0,1937.0,10557274.0,
1594.0,1648.0,1972.0,1939.0,10557277.0,
1594.0,1649.0,1968.0,1934.0,10557281.0,
1595.0,1650.0,1966.0,1932.0,10557285.0,
1594.0,1650.0,1967.0,1930.0,10557288.0,
1596.0,1650.0,1968.0,1928.0,10557292.0,
1594.0,1650.0,1970.0,1932.0,10557296.0,
1595.0,1649.0,1970.0,1928.0,10557299.0,
1595.0,1649.0,1968.0,1925.0,10557303.0,
1595.0,1649.0,1971.0,1923.0,10557306.0,
1595.0,1649.0,1970.0,1919.0,10557310.0,
1595.0,1651.0,1972.0,1920.0,10557314.0,
1595.0,1645.0,1976.0,1918.0,10557317.0,
1594.0,1650.0,1977.0,1919.0,10557321.0,
1595.0,1651.0,1980.0,1918.0,10557325.0,
1596.0,1651.0,1981.0,1922.0,10557328.0,
1595.0,1649.0,1981.0,1921.0,10557332.0,
1596.0,1650.0,1983.0,1922.0,10557336.0,
1596.0,1651.0,1984.0,1922.0,10557339.0,
1595.0,1652.0,1983.0,1921.0,10557343.0,
1595.0,1651.0,1985.0,1921.0,10557346.0,
1592.0,1651.0,1987.0,1920.0,10557350.0,
1596.0,1651.0,1986.0,1921.0,10557354.0,
1596.0,1650.0,1988.0,1919.0,10557357.0,
1590.0,1651.0,1990.0,1917.0,10557361.0,
1595.0,1652.0,1986.0,1911.0,10557365.0,
1595.0,1651.0,1987.0,1911.0,10557368.0,
1596.0,1652.0,1990.0,1907.0,10557372.0,
1597.0,1651.0,1989.0,1909.0,10557376.0,
1596.0,1651.0,1989.0,1899.0,10557379.0,
1596.0,1651.0,1991.0,1897.0,10557383.0,
1596.0,1651.0,1992.0,1889.0,10557386.0,
1596.0,1651.0,1986.0,1887.0,10557390.0,
1596.0,1652.0,1992.0,1879.0,10557394.0,
1593.0,1652.0,1989.0,1875.0,10557397.0,
1596.0,1651.0,1990.0,1873.0,10557401.0,
1590.0,1651.0,1988.0,1871.0,10557405.0,
1595.0,1652.0,1988.0,1868.0,10557408.0,
1595.0,1652.0,1988.0,1867.0,10557412.0,
1595.0,1652.0,1983.0,1864.0,10557416.0,
1596.0,1652.0,1983.0,1863.0,10557419.0,
1597.0,1652.0,1982.0,1859.0,10557423.0,
1595.0,1649.0,1980.0,1861.0,10557426.0,
1596.0,1652.0,1982.0,1862.0,10557430.0,
1597.0,1652.0,1980.0,1860.0,10557434.0,
1596.0,1652.0,1981.0,1859.0,10557437.0,
1596.0,1652.0,1982.0,1857.0,10557441.0,
1597.0,1652.0,1981.0,1858.0,10557445.0,
1596.0,1653.0,1982.0,1857.0,10557448.0,
1596.0,1653.0,1978.0,1856.0,10557452.0,
1596.0,1652.0,1983.0,1855.0,10557456.0,
1598.0,1653.0,1984.0,1856.0,10557459.0,
1598.0,1652.0,1985.0,1856.0,10557463.0,
1596.0,1651.0,1983.0,1857.0,10557466.0,
1597.0,1656.0,1988.0,1859.0,10557470.0,
1596.0,1656.0,1987.0,1855.0,10557474.0,
1596.0,1653.0,1987.0,1856.0,10557477.0,
1597.0,1652.0,1991.0,1856.0,10557481.0,
1597.0,1653.0,1989.0,1856.0,10557485.0,
1597.0,1653.0,1988.0,1854.0,10557488.0,
1597.0,1652.0,1986.0,1857.0,10557492.0,
1597.0,1652.0,1986.0,1855.0,10557496.0,
1597.0,1653.0,1986.0,1856.0,10557499.0,
1596.0,1652.0,1981.0,1856.0,10557503.0,
1597.0,1653.0,1983.0,1857.0,10557506.0,
1597.0,1653.0,1982.0,1862.0,10557510.0,
1598.0,1654.0,1983.0,1861.0,10557514.0,
1598.0,1655.0,1984.0,1860.0,10557517.0,
1596.0,1652.0,1982.0,1857.0,10557521.0,
1597.0,1654.0,1982.0,1858.0,10557525.0,
1597.0,1653.0,1982.0,1854.0,10557528.0,
1598.0,1654.0,1981.0,1851.0,10557532.0,
1597.0,1653.0,1979.0,1846.0,10557535.0,
1597.0,1654.0,1979.0,1846.0,10557539.0,
1598.0,1653.0,1976.0,1841.0,10557543.0,
1598.0,1652.0,1978.0,1839.0,10557546.0,
1598.0,1654.0,1978.0,1835.0,10557550.0,
1597.0,1653.0,1979.0,1834.0,10557554.0,
1598.0,1654.0,1979.0,1829.0,10557557.0,
1596.0,1653.0,1980.0,1828.0,10557561.0,
1597.0,1654.0,1978.0,1825.0,10557565.0,
1597.0,1655.0,1980.0,1821.0,10557568.0,
1596.0,1653.0,1982.0,1819.0,10557572.0,
1597.0,1653.0,1981.0,1824.0,10557575.0,
1598.0,1653.0,1980.0,1820.0,10557579.0,
1590.0,1654.0,1980.0,1815.0,10557583.0,
1598.0,1656.0,1979.0,1817.0,10557586.0,
1598.0,1654.0,1980.0,1814.0,10557590.0,
1599.0,1654.0,1977.0,1816.0,10557594.0,
1598.0,1653.0,1976.0,1814.0,10557597.0,
1598.0,1653.0,1973.0,1817.0,10557601.0,
1596.0,1653.0,1974.0,1812.0,10557605.0,
1599.0,1653.0,1971.0,1814.0,10557608.0,
1599.0,1654.0,1969.0,1810.0,10557612.0,
1598.0,1653.0,1968.0,1812.0,10557615.0,
1598.0,1653.0,1966.0,1815.0,10557619.0,
1599.0,1652.0,1966.0,1816.0,10557623.0,
1600.0,1653.0,1964.0,1822.0,10557626.0,
1598.0,1654.0,1964.0,1827.0,10557630.0,
1599.0,1654.0,1962.0,1832.0,10557634.0,
1598.0,1654.0,1961.0,1831.0,10557637.0,
1599.0,1653.0,1960.0,1849.0,10557641.0,
1597.0,1654.0,1960.0,1857.0,10557645.0,
1599.0,1653.0,1960.0,1873.0,10557648.0,
1602.0,1653.0,1960.0,1884.0,10557652.0,
1599.0,1655.0,1960.0,1901.0,10557655.0,
1599.0,1653.0,1965.0,1919.0,10557659.0,
1598.0,1653.0,1969.0,1940.0,10557663.0,
1599.0,1653.0,1976.0,1964.0,10557666.0,
1598.0,1653.0,1982.0,1991.0,10557670.0,
1598.0,1653.0,1994.0,2012.0,10557674.0,
1599.0,1653.0,2000.0,2036.0,10557677.0,
1600.0,1652.0,2014.0,2063.0,10557681.0,
1600.0,1654.0,2024.0,2086.0,10557685.0,
1600.0,1653.0,2038.0,2109.0,10557688.0,
1599.0,1653.0,2052.0,2137.0,10557692.0,
1599.0,1653.0,2067.0,2165.0,10557695.0,
1599.0,1653.0,2083.0,2192.0,10557699.0,
1599.0,1652.0,2098.0,2219.0,10557703.0,
1601.0,1652.0,2115.0,2246.0,10557706.0,
1599.0,1653.0,2130.0,2273.0,10557710.0,
1599.0,1652.0,2148.0,2297.0,10557714.0,
1599.0,1654.0,2165.0,2323.0,10557717.0,
1599.0,1652.0,2184.0,2348.0,10557721.0,
1600.0,1653.0,2198.0,2367.0,10557724.0,
1600.0,1653.0,2215.0,2394.0,10557728.0,
1599.0,1653.0,2230.0,2417.0,10557732.0,
1600.0,1653.0,2246.0,2438.0,10557735.0,
1600.0,1652.0,2264.0,2451.0,10557739.0,
1598.0,1653.0,2276.0,2466.0,10557743.0,
1600.0,1652.0,2290.0,2478.0,10557746.0,
1599.0,1653.0,2300.0,2489.0,10557750.0,
1600.0,1653.0,2312.0,2497.0,10557754.0,
1599.0,1653.0,2323.0,2505.0,10557757.0,
1601.0,1652.0,2334.0,2511.0,10557761.0,
1600.0,1653.0,2344.0,2517.0,10557764.0,
1601.0,1652.0,2344.0,2519.0,10557768.0,
1601.0,1653.0,2351.0,2526.0,10557772.0,
1601.0,1653.0,2354.0,2527.0,10557775.0,
1601.0,1653.0,2354.0,2529.0,10557779.0,
1600.0,1653.0,2353.0,2528.0,10557783.0,
1601.0,1652.0,2352.0,2525.0,10557786.0,
1601.0,1653.0,2346.0,2522.0,10557790.0,
1601.0,1653.0,2340.0,2518.0,10557794.0,
1603.0,1653.0,2334.0,2513.0,10557797.0,
1602.0,1654.0,2326.0,2511.0,10557801.0,
1601.0,1653.0,2318.0,2507.0,10557804.0,
1601.0,1653.0,2309.0,2504.0,10557808.0,
1602.0,1654.0,2303.0,2501.0,10557812.0,
1602.0,1653.0,2290.0,2493.0,10557815.0,
1600.0,1653.0,2277.0,2489.0,10557819.0,
1601.0,1653.0,2271.0,2482.0,10557823.0,
1602.0,1652.0,2260.0,2471.0,10557826.0,
1601.0,1652.0,2249.0,2470.0,10557830.0,
1601.0,1652.0,2240.0,2458.0,10557834.0,
1601.0,1652.0,2232.0,2452.0,10557837.0,
1602.0,1653.0,2219.0,2445.0,10557841.0,
1596.0,1653.0,2210.0,2440.0,10557844.0,
1602.0,1655.0,2203.0,2432.0,10557848.0,
1601.0,1654.0,2194.0,2423.0,10557852.0,
1602.0,1653.0,2185.0,2413.0,10557855.0,
1602.0,1653.0,2177.0,2405.0,10557859.0,
1602.0,1654.0,2174.0,2397.0,10557863.0,
1603.0,1653.0,2167.0,2389.0,10557866.0,
1602.0,1654.0,2160.0,2382.0,10557870.0,
1601.0,1653.0,2153.0,2373.0,10557874.0,
1602.0,1653.0,2150.0,2363.0,10557877.0,
1601.0,1653.0,2143.0,2355.0,10557881.0,
1602.0,1653.0,2140.0,2342.0,10557884.0,
1603.0,1654.0,2134.0,2332.0,10557888.0,
1602.0,1653.0,2129.0,2324.0,10557892.0,
1602.0,1653.0,2124.0,2307.0,10557895.0,
1603.0,1655.0,2118.0,2296.0,10557899.0,
1603.0,1655.0,2115.0,2286.0,10557903.0,
1602.0,1653.0,2108.0,2277.0,10557906.0,
1603.0,1653.0,2100.0,2265.0,10557910.0,
1604.0,1653.0,2096.0,2254.0,10557914.0,
1602.0,1653.0,2092.0,2247.0,10557917.0,
1603.0,1652.0,2085.0,2241.0,10557921.0,
1603.0,1652.0,2084.0,2228.0,10557924.0,
1604.0,1653.0,2079.0,2222.0,10557928.0,
1603.0,1652.0,2077.0,2210.0,10557932.0,
1610.0,1652.0,2072.0,2202.0,10557935.0,
1603.0,1652.0,2070.0,2191.0,10557939.0,
1603.0,1652.0,2068.0,2184.0,10557943.0,
1603.0,1653.0,2065.0,2175.0,10557946.0,
1604.0,1652.0,2063.0,2167.0,10557950.0,
1603.0,1652.0,2062.0,2158.0,10557953.0,
1604.0,1653.0,2061.0,2153.0,10557957.0,
1604.0,1652.0,2060.0,2147.0,10557961.0,
1603.0,1652.0,2059.0,2141.0,10557964.0,
1604.0,1653.0,2056.0,2139.0,10557968.0,
1604.0,1652.0,2055.0,2130.0,10557972.0,
1603.0,1651.0,2055.0,2125.0,10557975.0,
1604.0,1651.0,2054.0,2124.0,10557979.0,
1603.0,1652.0,2052.0,2126.0,10557983.0,
1603.0,1652.0,2052.0,2121.0,10557986.0,
1604.0,1653.0,2052.0,2121.0,10557990.0,
1603.0,1652.0,2051.0,2118.0,10557993.0,
1604.0,1652.0,2053.0,2117.0,10557997.0,
1605.0,1651.0,2052.0,2113.0,10558001.0,
1604.0,1648.0,2054.0,2112.0,10558004.0,
1605.0,1651.0,2055.0,2110.0,10558008.0,
1604.0,1651.0,2055.0,2111.0,10558012.0,
1604.0,1652.0,2057.0,2108.0,10558015.0,
1603.0,1651.0,2058.0,2108.0,10558019.0,
1605.0,1652.0,2058.0,2104.0,10558023.0,
1604.0,1650.0,2059.0,2099.0,10558026.0,
1604.0,1650.0,2061.0,2095.0,10558030.0,
1605.0,1650.0,2055.0,2091.0,10558033.0,
1604.0,1652.0,2057.0,2088.0,10558037.0,
1606.0,1650.0,2060.0,2086.0,10558041.0,
1605.0,1650.0,2060.0,2081.0,10558044.0,
1603.0,1651.0,2059.0,2078.0,10558048.0,
1604.0,1650.0,2062.0,2075.0,10558052.0,
1604.0,1649.0,2057.0,2074.0,10558055.0,
1604.0,1650.0,2057.0,2071.0,10558059.0,
1605.0,1651.0,2056.0,2069.0,10558063.0,
1605.0,1650.0,2054.0,2065.0,10558066.0,
1604.0,1651.0,2051.0,2062.0,10558070.0,
1599.0,1650.0,2049.0,2063.0,10558073.0,
1605.0,1651.0,2047.0,2059.0,10558077.0,
1605.0,1651.0,2044.0,2057.0,10558081.0,
1602.0,1651.0,2040.0,2054.0,10558084.0,
1605.0,1650.0,2038.0,2051.0,10558088.0,
1606.0,1650.0,2035.0,2045.0,10558092.0,
1606.0,1650.0,2032.0,2041.0,10558095.0,
1605.0,1649.0,2028.0,2035.0,10558099.0,
1606.0,1652.0,2024.0,2031.0,10558103.0,
1602.0,1650.0,2021.0,2024.0,10558106.0,
1606.0,1650.0,2016.0,2022.0,10558110.0,
1606.0,1650.0,2014.0,2011.0,10558113.0,
1605.0,1650.0,2009.0,2007.0,10558117.0,
1606.0,1653.0,2005.0,2002.0,10558121.0,
1606.0,1649.0,2001.0,1997.0,10558124.0,
1605.0,1650.0,2001.0,1989.0,10558128.0,
1606.0,1648.0,1996.0,1984.0,10558132.0,
1605.0,1650.0,1994.0,1979.0,10558135.0,
1605.0,1649.0,1993.0,1974.0,10558139.0,
1606.0,1649.0,1989.0,1967.0,10558142.0,
1605.0,1649.0,1986.0,1961.0,10558146.0,
1606.0,1649.0,1985.0,1956.0,10558150.0,
1606.0,1649.0,1982.0,1944.0,10558153.0,
1605.0,1648.0,1983.0,1947.0,10558157.0,
1606.0,1649.0,1980.0,1938.0,10558161.0,
1607.0,1649.0,1981.0,1930.0,10558164.0,
1607.0,1650.0,1982.0,1927.0,10558168.0,
1608.0,1649.0,1983.0,1925.0,10558172.0,
1606.0,1649.0,1983.0,1920.0,10558175.0,
1606.0,1650.0,1985.0,1919.0,10558179.0,
1606.0,1647.0,1982.0,1914.0,10558182.0,
1607.0,1648.0,1982.0,1911.0,10558186.0,
1607.0,1649.0,1982.0,1907.0,10558190.0,
1607.0,1649.0,1982.0,1906.0,10558193.0,
1607.0,1648.0,1983.0,1902.0,10558197.0,
1606.0,1648.0,1982.0,1900.0,10558201.0,
1607.0,1648.0,1981.0,1893.0,10558204.0,
1607.0,1649.0,1980.0,1890.0,10558208.0,
1606.0,1648.0,1981.0,1885.0,10558212.0,
1606.0,1648.0,1981.0,1881.0,10558215.0,
1607.0,1649.0,1981.0,1877.0,10558219.0,
1606.0,1648.0,1981.0,1880.0,10558222.0,
1607.0,1648.0,1985.0,1872.0,10558226.0,
1608.0,1646.0,1985.0,1871.0,10558230.0,
1606.0,1648.0,1986.0,1871.0,10558233.0,
1607.0,1648.0,1989.0,1871.0,10558237.0,
1607.0,1648.0,1990.0,1874.0,10558241.0,
1607.0,1648.0,1993.0,1873.0,10558244.0,
1607.0,1648.0,1995.0,1875.0,10558248.0,
1604.0,1648.0,1996.0,1874.0,10558252.0,
1607.0,1647.0,2000.0,1876.0,10558255.0,
1607.0,1647.0,2001.0,1875.0,10558259.0,
1601.0,1648.0,2000.0,1878.0,10558262.0,
1607.0,1648.0,1998.0,1875.0,10558266.0,
1607.0,1647.0,2000.0,1877.0,10558270.0,
1609.0,1647.0,2003.0,1878.0,10558273.0,
1607.0,1647.0,2001.0,1877.0,10558277.0,
1606.0,1648.0,2001.0,1872.0,10558281.0,
1607.0,1648.0,2005.0,1866.0,10558284.0,
1608.0,1648.0,2002.0,1871.0,10558288.0,
1610.0,1648.0,2007.0,1874.0,10558292.0,
1607.0,1648.0,2005.0,1871.0,10558295.0,
1606.0,1647.0,2002.0,1875.0,10558299.0,
1607.0,1646.0,2009.0,1874.0,10558302.0,
1609.0,1647.0,2009.0,1875.0,10558306.0,
1608.0,1648.0,2010.0,1876.0,10558310.0,
1607.0,1649.0,2010.0,1873.0,10558313.0,
1606.0,1648.0,2010.0,1875.0,10558317.0,
1608.0,1648.0,2009.0,1876.0,10558321.0,
1607.0,1647.0,2010.0,1876.0,10558324.0,
1606.0,1647.0,2009.0,1876.0,10558328.0,
1608.0,1646.0,2009.0,1878.0,10558332.0,
1607.0,1647.0,2006.0,1876.0,10558335.0,
1607.0,1647.0,2005.0,1881.0,10558339.0,
1608.0,1647.0,2006.0,1877.0,10558342.0,
1607.0,1647.0,2003.0,1881.0,10558346.0,
1608.0,1648.0,2003.0,1883.0,10558350.0,
1607.0,1646.0,2000.0,1883.0,10558353.0,
1608.0,1647.0,1999.0,1884.0,10558357.0,
1608.0,1649.0,1998.0,1886.0,10558361.0,
1609.0,1647.0,1993.0,1885.0,10558364.0,
1609.0,1647.0,1997.0,1883.0,10558368.0,
1608.0,1648.0,1991.0,1883.0,10558371.0,
1607.0,1645.0,1988.0,1881.0,10558375.0,
1607.0,1649.0,1986.0,1878.0,10558379.0,
1606.0,1647.0,1982.0,1874.0,10558382.0,
1608.0,1646.0,1983.0,1875.0,10558386.0,
1608.0,1647.0,1981.0,1870.0,10558390.0,
1607.0,1645.0,1980.0,1867.0,10558393.0,
1608.0,1646.0,1979.0,1865.0,10558397.0,
1609.0,1647.0,1981.0,1864.0,10558401.0,
1608.0,1648.0,1975.0,1860.0,10558404.0,
1607.0,1649.0,1980.0,1858.0,10558408.0,
1606.0,1647.0,1981.0,1855.0,10558411.0,
1605.0,1646.0,1982.0,1852.0,10558415.0,
1609.0,1646.0,1979.0,1852.0,10558419.0,
1607.0,1649.0,1982.0,1851.0,10558422.0,
1609.0,1647.0,1981.0,1848.0,10558426.0,
1608.0,1647.0,1981.0,1848.0,10558430.0,
1608.0,1646.0,1982.0,1846.0,10558433.0,
1607.0,1646.0,1981.0,1843.0,10558437.0,
1607.0,1647.0,1984.0,1843.0,10558441.0,
1608.0,1647.0,1980.0,1844.0,10558444.0,
1608.0,1646.0,1983.0,1844.0,10558448.0,
1608.0,1647.0,1981.0,1844.0,10558451.0,
1608.0,1647.0,1984.0,1842.0,10558455.0,
1606.0,1646.0,1981.0,1847.0,10558459.0,
1607.0,1646.0,1981.0,1848.0,10558462.0,
1607.0,1646.0,1980.0,1851.0,10558466.0,
1608.0,1646.0,1982.0,1854.0,10558470.0,
1606.0,1646.0,1984.0,1858.0,10558473.0,
1607.0,1646.0,1985.0,1860.0,10558477.0,
1609.0,1647.0,1986.0,1869.0,10558481.0,
1607.0,1647.0,1988.0,1877.0,10558484.0,
1607.0,1645.0,1988.0,1891.0,10558488.0,
1607.0,1646.0,1992.0,1902.0,10558491.0,
1607.0,1647.0,1992.0,1913.0,10558495.0,
1607.0,1645.0,1994.0,1929.0,10558499.0,
1605.0,1647.0,1997.0,1947.0,10558502.0,
1607.0,1646.0,1999.0,1966.0,10558506.0,
1606.0,1646.0,2001.0,1987.0,10558510.0,
1607.0,1647.0,2007.0,2011.0,10558513.0,
1607.0,1647.0,2010.0,2030.0,10558517.0,
1607.0,1645.0,2015.0,2054.0,10558521.0,
1606.0,1646.0,2026.0,2078.0,10558524.0,
1606.0,1646.0,2035.0,2108.0,10558528.0,
1607.0,1645.0,2048.0,2131.0,10558531.0,
1613.0,1645.0,2054.0,2157.0,10558535.0,
1606.0,1645.0,2068.0,2183.0,10558539.0,
1607.0,1645.0,2082.0,2210.0,10558542.0,
1604.0,1647.0,2098.0,2235.0,10558546.0,
1606.0,1646.0,2110.0,2263.0,10558550.0,
1606.0,1646.0,2130.0,2284.0,10558553.0,
1605.0,1648.0,2145.0,2309.0,10558557.0,
1606.0,1646.0,2161.0,2331.0,10558561.0,
1604.0,1646.0,2180.0,2354.0,10558564.0,
1606.0,1646.0,2198.0,2377.0,10558568.0,
1606.0,1646.0,2213.0,2399.0,10558571.0,
1606.0,1646.0,2229.0,2419.0,10558575.0,
1605.0,1646.0,2247.0,2442.0,10558579.0,
1606.0,1646.0,2259.0,2461.0,10558582.0,
1606.0,1646.0,2271.0,2482.0,10558586.0,
1605.0,1647.0,2287.0,2499.0,10558590.0,
1605.0,1646.0,2300.0,2512.0,10558593.0,
1605.0,1646.0,2313.0,2527.0,10558597.0,
1605.0,1645.0,2322.0,2539.0,10558600.0,
1605.0,1645.0,2330.0,2550.0,10558604.0,
1605.0,1646.0,2341.0,2559.0,10558608.0,
1605.0,1645.0,2346.0,2569.0,10558611.0,
1604.0,1646.0,2353.0,2577.0,10558615.0,
1603.0,1644.0,2358.0,2581.0,10558619.0,
1604.0,1648.0,2362.0,2587.0,10558622.0,
1604.0,1645.0,2362.0,2592.0,10558626.0,
1604.0,1646.0,2360.0,2598.0,10558630.0,
1605.0,1643.0,2359.0,2600.0,10558633.0,
1605.0,1645.0,2353.0,2600.0,10558637.0,
1604.0,1646.0,2350.0,2603.0,10558640.0,
1604.0,1646.0,2342.0,2605.0,10558644.0,
1604.0,1646.0,2337.0,2606.0,10558648.0,
1609.0,1645.0,2328.0,2610.0,10558651.0,
1604.0,1645.0,2322.0,2609.0,10558655.0,
1604.0,1645.0,2312.0,2608.0,10558659.0,
1604.0,1645.0,2305.0,2607.0,10558662.0,
1603.0,1645.0,2295.0,2608.0,10558666.0,
1603.0,1645.0,2286.0,2606.0,10558670.0,
1603.0,1645.0,2277.0,2608.0,10558673.0,
1602.0,1645.0,2268.0,2606.0,10558677.0,
1602.0,1646.0,2257.0,2606.0,10558680.0,
1604.0,1642.0,2250.0,2600.0,10558684.0,
1602.0,1644.0,2239.0,2599.0,10558688.0,
1603.0,1644.0,2231.0,2597.0,10558691.0,
1601.0,1644.0,2218.0,2593.0,10558695.0,
1602.0,1645.0,2210.0,2588.0,10558699.0,
1602.0,1645.0,2201.0,2586.0,10558702.0,
1601.0,1644.0,2195.0,2580.0,10558706.0,
1601.0,1645.0,2186.0,2574.0,10558710.0,
1601.0,1645.0,2179.0,2566.0,10558713.0,
1600.0,1644.0,2174.0,2558.0,10558717.0,
1602.0,1643.0,2168.0,2551.0,10558720.0,
1601.0,1645.0,2160.0,2540.0,10558724.0,
1600.0,1644.0,2155.0,2531.0,10558728.0,
1599.0,1645.0,2147.0,2521.0,10558731.0,
1600.0,1644.0,2145.0,2508.0,10558735.0,
1598.0,1644.0,2138.0,2496.0,10558739.0,
1599.0,1645.0,2131.0,2483.0,10558742.0,
1599.0,1645.0,2126.0,2470.0,10558746.0,
1600.0,1644.0,2117.0,2454.0,10558749.0,
1600.0,1642.0,2115.0,2436.0,10558753.0,
1598.0,1645.0,2110.0,2424.0,10558757.0,
1598.0,1644.0,2108.0,2406.0,10558760.0,
1598.0,1644.0,2099.0,2391.0,10558764.0,
1598.0,1644.0,2095.0,2372.0,10558768.0,
1592.0,1644.0,2090.0,2357.0,10558771.0,
1596.0,1644.0,2086.0,2341.0,10558775.0,
1597.0,1645.0,2075.0,2328.0,10558779.0,
1596.0,1644.0,2077.0,2312.0,10558782.0,
1597.0,1644.0,2079.0,2301.0,10558786.0,
1596.0,1643.0,2066.0,2285.0,10558789.0,
1596.0,1643.0,2062.0,2272.0,10558793.0,
1596.0,1645.0,2056.0,2261.0,10558797.0,
1595.0,1644.0,2053.0,2250.0,10558800.0,
1596.0,1643.0,2052.0,2235.0,10558804.0,
1595.0,1644.0,2043.0,2224.0,10558808.0,
1594.0,1645.0,2046.0,2217.0,10558811.0,
1594.0,1644.0,2042.0,2206.0,10558815.0,
1594.0,1642.0,2038.0,2201.0,10558819.0,
1594.0,1644.0,2038.0,2190.0,10558822.0,
1594.0,1643.0,2032.0,2183.0,10558826.0,
1593.0,1642.0,2036.0,2178.0,10558829.0,
1593.0,1643.0,2031.0,2173.0,10558833.0,
1593.0,1642.0,2031.0,2172.0,10558837.0,
1587.0,1643.0,2030.0,2171.0,10558840.0,
1593.0,1643.0,2031.0,2169.0,10558844.0,
1592.0,1644.0,2032.0,2169.0,10558848.0,
1591.0,1643.0,2032.0,2167.0,10558851.0,
1591.0,1644.0,2032.0,2170.0,10558855.0,
1591.0,1642.0,2033.0,2169.0,10558859.0,
1591.0,1643.0,2034.0,2165.0,10558862.0,
1590.0,1642.0,2036.0,2162.0,10558866.0,
1590.0,1644.0,2038.0,2163.0,10558869.0,
1590.0,1643.0,2042.0,2162.0,10558873.0,
1589.0,1643.0,2038.0,2159.0,10558877.0,
1590.0,1642.0,2044.0,2158.0,10558880.0,
1588.0,1643.0,2049.0,2155.0,10558884.0,
1589.0,1643.0,2048.0,2156.0,10558888.0,
1588.0,1643.0,2050.0,2152.0,10558891.0,
1587.0,1643.0,2053.0,2149.0,10558895.0,
1588.0,1644.0,2058.0,2141.0,10558899.0,
1587.0,1643.0,2060.0,2140.0,10558902.0,
1586.0,1643.0,2062.0,2139.0,10558906.0,
1587.0,1644.0,2064.0,2139.0,10558909.0,
1587.0,1643.0,2061.0,2134.0,10558913.0,
1585.0,1643.0,2062.0,2126.0,10558917.0,
1586.0,1642.0,2073.0,2123.0,10558920.0,
1585.0,1644.0,2072.0,2119.0,10558924.0,
1585.0,1643.0,2075.0,2113.0,10558928.0,
1585.0,1640.0,2073.0,2109.0,10558931.0,
1583.0,1643.0,2075.0,2104.0,10558935.0,
1583.0,1643.0,2075.0,2101.0,10558938.0,
1584.0,1643.0,2072.0,2095.0,10558942.0,
1585.0,1643.0,2074.0,2089.0,10558946.0,
1583.0,1644.0,2071.0,2083.0,10558949.0,
1583.0,1643.0,2069.0,2073.0,10558953.0,
1581.0,1644.0,2067.0,2070.0,10558957.0,
1582.0,1643.0,2063.0,2064.0,10558960.0,
1581.0,1641.0,2058.0,2057.0,10558964.0,
1580.0,1642.0,2056.0,2048.0,10558968.0,
1580.0,1643.0,2047.0,2040.0,10558971.0,
1581.0,1643.0,2047.0,2034.0,10558975.0,
1580.0,1642.0,2043.0,2025.0,10558978.0,
1579.0,1643.0,2040.0,2017.0,10558982.0,
1579.0,1643.0,2037.0,2010.0,10558986.0,
1578.0,1637.0,2031.0,2002.0,10558989.0,
1578.0,1643.0,2028.0,1990.0,10558993.0,
1577.0,1643.0,2024.0,1983.0,10558997.0,
1577.0,1644.0,2020.0,1975.0,10559000.0,
1577.0,1643.0,2012.0,1969.0,10559004.0,
1577.0,1646.0,2011.0,1962.0,10559008.0,
1576.0,1642.0,2007.0,1955.0,10559011.0,
1576.0,1644.0,2006.0,1949.0,10559015.0,
1575.0,1643.0,2001.0,1945.0,10559018.0,
1574.0,1643.0,1999.0,1935.0,10559022.0,
1575.0,1643.0,1995.0,1929.0,10559026.0,
1574.0,1644.0,1992.0,1925.0,10559029.0,
1574.0,1643.0,1988.0,1920.0,10559033.0,
1572.0,1643.0,1986.0,1919.0,10559037.0,
1572.0,1644.0,1984.0,1915.0,10559040.0,
1572.0,1642.0,1981.0,1914.0,10559044.0,
1574.0,1643.0,1978.0,1914.0,10559048.0,
1572.0,1643.0,1976.0,1915.0,10559051.0,
1571.0,1642.0,1975.0,1913.0,10559055.0,
1571.0,1642.0,1972.0,1914.0,10559058.0,
1570.0,1643.0,1977.0,1915.0,10559062.0,
1569.0,1643.0,1970.0,1916.0,10559066.0,
1570.0,1642.0,1970.0,1919.0,10559069.0,
1569.0,1642.0,1970.0,1917.0,10559073.0,
1569.0,1642.0,1972.0,1916.0,10559077.0,
1568.0,1643.0,1971.0,1919.0,10559080.0,
1567.0,1643.0,1972.0,1918.0,10559084.0,
1567.0,1642.0,1973.0,1916.0,10559088.0,
1567.0,1642.0,1975.0,1917.0,10559091.0,
1566.0,1636.0,1975.0,1915.0,10559095.0,
1565.0,1642.0,1977.0,1915.0,10559098.0,
1564.0,1642.0,1979.0,1915.0,10559102.0,
1565.0,1642.0,1982.0,1910.0,10559106.0,
1565.0,1642.0,1983.0,1909.0,10559109.0,
1565.0,1642.0,1988.0,1904.0,10559113.0,
1564.0,1642.0,1987.0,1906.0,10559117.0,
1563.0,1642.0,1990.0,1903.0,10559120.0,
1564.0,1643.0,1993.0,1900.0,10559124.0,
1564.0,1642.0,1990.0,1899.0,10559127.0,
1562.0,1643.0,1995.0,1899.0,10559131.0,
1561.0,1642.0,1996.0,1901.0,10559135.0,
1562.0,1643.0,1999.0,1900.0,10559138.0,
1560.0,1642.0,1999.0,1898.0,10559142.0,
1561.0,1642.0,2003.0,1894.0,10559146.0,
1561.0,1643.0,2005.0,1889.0,10559149.0,
1561.0,1642.0,2006.0,1893.0,10559153.0,
1559.0,1642.0,2006.0,1894.0,10559157.0,
1559.0,1642.0,2006.0,1896.0,10559160.0,
1558.0,1641.0,2006.0,1897.0,10559164.0,
1558.0,1641.0,2004.0,1896.0,10559167.0,
1556.0,1642.0,2002.0,1895.0,10559171.0,
1556.0,1642.0,2001.0,1896.0,10559175.0,
1557.0,1642.0,2001.0,1895.0,10559178.0,
1556.0,1643.0,2008.0,1897.0,10559182.0,
1556.0,1642.0,2001.0,1897.0,10559186.0,
1556.0,1642.0,2002.0,1897.0,10559189.0,
1555.0,1642.0,2002.0,1895.0,10559193.0,
1554.0,1641.0,2005.0,1893.0,10559197.0,
1554.0,1642.0,2004.0,1891.0,10559200.0,
1553.0,1642.0,2005.0,1888.0,10559204.0,
1553.0,1642.0,2003.0,1884.0,10559207.0,
1552.0,1643.0,2005.0,1883.0,10559211.0,
1553.0,1642.0,2007.0,1882.0,10559215.0,
1555.0,1642.0,2007.0,1880.0,10559218.0,
1550.0,1642.0,2010.0,1882.0,10559222.0,
1552.0,1642.0,2009.0,1881.0,10559226.0,
1551.0,1646.0,2011.0,1884.0,10559229.0,
1550.0,1642.0,2013.0,1881.0,10559233.0,
1549.0,1642.0,2010.0,1882.0,10559237.0,
1548.0,1642.0,2013.0,1880.0,10559240.0,
1551.0,1642.0,2014.0,1882.0,10559244.0,
1547.0,1642.0,2015.0,1874.0,10559247.0,
1548.0,1641.0,2014.0,1872.0,10559251.0,
1548.0,1642.0,2019.0,1870.0,10559255.0,
1546.0,1642.0,2018.0,1866.0,10559258.0,
1545.0,1642.0,2017.0,1863.0,10559262.0,
1546.0,1642.0,2019.0,1852.0,10559266.0,
1546.0,1642.0,2015.0,1850.0,10559269.0,
1549.0,1642.0,2014.0,1843.0,10559273.0,
1545.0,1642.0,2015.0,1844.0,10559277.0,
1545.0,1642.0,2012.0,1838.0,10559280.0,
1543.0,1642.0,2012.0,1836.0,10559284.0,
1543.0,1642.0,2009.0,1833.0,10559287.0,
1542.0,1641.0,2009.0,1824.0,10559291.0,
1542.0,1642.0,2010.0,1828.0,10559295.0,
1542.0,1642.0,2009.0,1826.0,10559298.0,
1537.0,1641.0,2007.0,1821.0,10559302.0,
1542.0,1641.0,2011.0,1815.0,10559306.0,
1542.0,1641.0,2006.0,1812.0,10559309.0,
1540.0,1642.0,2005.0,1808.0,10559313.0,
1540.0,1641.0,2001.0,1803.0,10559316.0,
1541.0,1641.0,2000.0,1800.0,10559320.0,
1538.0,1641.0,1997.0,1797.0,10559324.0,
1539.0,1642.0,1993.0,1792.0,10559327.0,
1540.0,1641.0,1992.0,1793.0,10559331.0,
1536.0,1642.0,1987.0,1788.0,10559335.0,
1538.0,1641.0,1985.0,1786.0,10559338.0,
1537.0,1642.0,1984.0,1787.0,10559342.0,
1536.0,1641.0,1981.0,1787.0,10559346.0,
1536.0,1641.0,1983.0,1788.0,10559349.0,
1536.0,1643.0,1978.0,1790.0,10559353.0,
1535.0,1642.0,1977.0,1791.0,10559356.0,
1535.0,1643.0,1975.0,1799.0,10559360.0,
1538.0,1642.0,1975.0,1803.0,10559364.0,
1533.0,1642.0,1975.0,1816.0,10559367.0,
1533.0,1642.0,1975.0,1826.0,10559371.0,
1533.0,1642.0,1979.0,1840.0,10559375.0,
1532.0,1642.0,1981.0,1851.0,10559378.0,
1532.0,1641.0,1985.0,1869.0,10559382.0,
1531.0,1645.0,1990.0,1886.0,10559386.0,
1531.0,1643.0,1997.0,1907.0,10559389.0,
1533.0,1643.0,2004.0,1929.0,10559393.0,
1533.0,1643.0,2011.0,1952.0,10559396.0,
1530.0,1643.0,2021.0,1982.0,10559400.0,
1530.0,1644.0,2032.0,2007.0,10559404.0,
1530.0,1645.0,2044.0,2040.0,10559407.0,
1529.0,1644.0,2055.0,2071.0,10559411.0,
1529.0,1643.0,2069.0,2106.0,10559415.0,
1529.0,1644.0,2084.0,2140.0,10559418.0,
1527.0,1641.0,2098.0,2179.0,10559422.0,
1527.0,1643.0,2114.0,2214.0,10559426.0,
1528.0,1643.0,2132.0,2257.0,10559429.0,
1526.0,1642.0,2144.0,2297.0,10559433.0,
1526.0,1642.0,2163.0,2336.0,10559436.0,
1526.0,1645.0,2180.0,2374.0,10559440.0,
1525.0,1643.0,2197.0,2413.0,10559444.0,
1525.0,1644.0,2213.0,2450.0,10559447.0,
1526.0,1644.0,2229.0,2497.0,10559451.0,
1525.0,1644.0,2247.0,2528.0,10559455.0,
1524.0,1645.0,2261.0,2559.0,10559458.0,
1524.0,1644.0,2278.0,2593.0,10559462.0,
1529.0,1644.0,2288.0,2623.0,10559466.0,
1523.0,1643.0,2303.0,2655.0,10559469.0,
1522.0,1642.0,2314.0,2685.0,10559473.0,
1522.0,1643.0,2324.0,2710.0,10559476.0,
1523.0,1643.0,2335.0,2738.0,10559480.0,
1522.0,1643.0,2344.0,2761.0,10559484.0,
1522.0,1642.0,2351.0,2785.0,10559487.0,
1522.0,1645.0,2357.0,2806.0,10559491.0,
1522.0,1644.0,2361.0,2825.0,10559495.0,
1521.0,1643.0,2366.0,2842.0,10559498.0,
1520.0,1644.0,2367.0,2860.0,10559502.0,
1521.0,1644.0,2365.0,2874.0,10559506.0,
1520.0,1643.0,2366.0,2884.0,10559509.0,
1520.0,1643.0,2365.0,2890.0,10559513.0,
1519.0,1643.0,2361.0,2899.0,10559516.0,
1518.0,1643.0,2355.0,2905.0,10559520.0,
1519.0,1644.0,2352.0,2908.0,10559524.0,
1518.0,1643.0,2345.0,2910.0,10559527.0,
1518.0,1644.0,2338.0,2915.0,10559531.0,
1518.0,1644.0,2332.0,2914.0,10559535.0,
1516.0,1643.0,2325.0,2916.0,10559538.0,
1518.0,1643.0,2317.0,2915.0,10559542.0,
1517.0,1643.0,2307.0,2915.0,10559545.0,
1517.0,1643.0,2304.0,2917.0,10559549.0,
1513.0,1643.0,2289.0,2915.0,10559553.0,
1516.0,1642.0,2288.0,2914.0,10559556.0,
1509.0,1642.0,2280.0,2909.0,10559560.0,
1515.0,1643.0,2272.0,2907.0,10559564.0,
1515.0,1643.0,2263.0,2903.0,10559567.0,
1515.0,1640.0,2257.0,2892.0,10559571.0,
1515.0,1643.0,2247.0,2893.0,10559575.0,
1516.0,1645.0,2240.0,2889.0,10559578.0,
1514.0,1644.0,2235.0,2881.0,10559582.0,
1513.0,1643.0,2227.0,2871.0,10559585.0,
1513.0,1644.0,2222.0,2864.0,10559589.0,
1512.0,1644.0,2216.0,2852.0,10559593.0,
1514.0,1643.0,2212.0,2841.0,10559596.0,
1512.0,1644.0,2205.0,2831.0,10559600.0,
1512.0,1644.0,2201.0,2819.0,10559604.0,
1511.0,1643.0,2198.0,2805.0,10559607.0,
1511.0,1644.0,2194.0,2794.0,10559611.0,
1511.0,1642.0,2192.0,2775.0,10559615.0,
1510.0,1644.0,2189.0,2760.0,10559618.0,
1509.0,1643.0,2189.0,2742.0,10559622.0,
1510.0,1642.0,2187.0,2721.0,10559625.0,
1512.0,1643.0,2184.0,2702.0,10559629.0,
1509.0,1642.0,2181.0,2681.0,10559633.0,
1510.0,1643.0,2180.0,2657.0,10559636.0,
1508.0,1643.0,2179.0,2637.0,10559640.0,
1510.0,1644.0,2178.0,2611.0,10559644.0,
1508.0,1638.0,2177.0,2588.0,10559647.0,
1509.0,1643.0,2175.0,2561.0,10559651.0,
1508.0,1643.0,2173.0,2535.0,10559655.0,
1507.0,1644.0,2169.0,2516.0,10559658.0,
1508.0,1644.0,2166.0,2489.0,10559662.0,
1507.0,1644.0,2170.0,2462.0,10559665.0,
1507.0,1644.0,2159.0,2442.0,10559669.0,
1507.0,1645.0,2158.0,2415.0,10559673.0,
1505.0,1644.0,2152.0,2392.0,10559676.0,
1506.0,1644.0,2147.0,2366.0,10559680.0,
1505.0,1644.0,2141.0,2344.0,10559684.0,
1506.0,1645.0,2135.0,2323.0,10559687.0,
1506.0,1644.0,2131.0,2306.0,10559691.0,
1499.0,1643.0,2124.0,2289.0,10559695.0,
1508.0,1643.0,2121.0,2273.0,10559698.0,
1504.0,1643.0,2114.0,2254.0,10559702.0,
1504.0,1642.0,2110.0,2242.0,10559705.0,
1504.0,1643.0,2106.0,2228.0,10559709.0,
1503.0,1643.0,2101.0,2220.0,10559713.0,
1504.0,1643.0,2096.0,2205.0,10559716.0,
1504.0,1644.0,2091.0,2194.0,10559720.0,
1504.0,1643.0,2088.0,2179.0,10559724.0,
1503.0,1643.0,2085.0,2172.0,10559727.0,
1502.0,1642.0,2082.0,2159.0,10559731.0,
1507.0,1641.0,2078.0,2150.0,10559734.0,
1501.0,1637.0,2078.0,2139.0,10559738.0,
1501.0,1643.0,2078.0,2128.0,10559742.0,
1505.0,1641.0,2075.0,2119.0,10559745.0,
1501.0,1643.0,2067.0,2115.0,10559749.0,
1501.0,1644.0,2074.0,2109.0,10559753.0,
1500.0,1642.0,2074.0,2106.0,10559756.0,
1499.0,1642.0,2073.0,2104.0,10559760.0,
1500.0,1643.0,2073.0,2103.0,10559764.0,
1502.0,1644.0,2076.0,2101.0,10559767.0,
1499.0,1643.0,2075.0,2103.0,10559771.0,
1500.0,1641.0,2075.0,2095.0,10559774.0,
1499.0,1643.0,2074.0,2102.0,10559778.0,
1498.0,1642.0,2075.0,2101.0,10559782.0,
1499.0,1642.0,2075.0,2101.0,10559785.0,
1499.0,1641.0,2077.0,2099.0,10559789.0,
1499.0,1642.0,2077.0,2102.0,10559793.0,
1498.0,1642.0,2078.0,2100.0,10559796.0,
1498.0,1643.0,2080.0,2103.0,10559800.0,
1504.0,1642.0,2079.0,2102.0,10559804.0,
1498.0,1642.0,2081.0,2104.0,10559807.0,
1497.0,1643.0,2080.0,2105.0,10559811.0,
1497.0,1644.0,2078.0,2106.0,10559814.0,
1498.0,1642.0,2080.0,2108.0,10559818.0,
1496.0,1642.0,2078.0,2111.0,10559822.0,
1496.0,1643.0,2078.0,2109.0,10559825.0,
1496.0,1642.0,2075.0,2108.0,10559829.0,
1496.0,1642.0,2070.0,2107.0,10559833.0,
1494.0,1642.0,2072.0,2106.0,10559836.0,
1496.0,1642.0,2068.0,2104.0,10559840.0,
1497.0,1643.0,2064.0,2100.0,10559844.0,
1495.0,1642.0,2062.0,2099.0,10559847.0,
1496.0,1642.0,2058.0,2095.0,10559851.0,
1496.0,1643.0,2053.0,2090.0,10559854.0,
1495.0,1642.0,2046.0,2090.0,10559858.0,
1495.0,1642.0,2043.0,2087.0,10559862.0,
1495.0,1642.0,2039.0,2084.0,10559865.0,
1494.0,1642.0,2035.0,2084.0,10559869.0,
1495.0,1641.0,2030.0,2082.0,10559873.0,
1495.0,1639.0,2024.0,2081.0,10559876.0,
1494.0,1642.0,2023.0,2081.0,10559880.0,
1493.0,1641.0,2019.0,2081.0,10559884.0,
1493.0,1642.0,2017.0,2077.0,10559887.0,
1493.0,1642.0,2011.0,2080.0,10559891.0,
1493.0,1642.0,2005.0,2079.0,10559894.0,
1494.0,1643.0,2000.0,2079.0,10559898.0,
1493.0,1641.0,1993.0,2080.0,10559902.0,
1493.0,1641.0,1995.0,2079.0,10559905.0,
1492.0,1642.0,1991.0,2077.0,10559909.0,
1493.0,1642.0,1989.0,2075.0,10559913.0,
1492.0,1641.0,1986.0,2070.0,10559916.0,
1492.0,1642.0,1982.0,2068.0,10559920.0,
1499.0,1641.0,1981.0,2066.0,10559923.0,
1492.0,1641.0,1979.0,2063.0,10559927.0,
1491.0,1641.0,1976.0,2059.0,10559931.0,
1492.0,1642.0,1975.0,2059.0,10559934.0,
1491.0,1642.0,1974.0,2057.0,10559938.0,
1492.0,1641.0,1969.0,2056.0,10559942.0,
1490.0,1641.0,1966.0,2049.0,10559945.0,
1491.0,1642.0,1962.0,2044.0,10559949.0,
1491.0,1641.0,1960.0,2038.0,10559953.0,
1491.0,1641.0,1958.0,2030.0,10559956.0,
1491.0,1642.0,1951.0,2024.0,10559960.0,
1491.0,1642.0,1950.0,2017.0,10559963.0,
1491.0,1638.0,1950.0,2012.0,10559967.0,
1490.0,1640.0,1947.0,2005.0,10559971.0,
1490.0,1641.0,1943.0,2002.0,10559974.0,
1490.0,1641.0,1944.0,1997.0,10559978.0,
1489.0,1641.0,1938.0,1995.0,10559982.0,
1487.0,1642.0,1939.0,1988.0,10559985.0,
1489.0,1641.0,1936.0,1984.0,10559989.0,
1489.0,1641.0,1935.0,1977.0,10559993.0,
1490.0,1641.0,1933.0,1972.0,10559996.0,
1489.0,1642.0,1931.0,1967.0,10560000.0,
1489.0,1641.0,1930.0,1963.0,10560003.0,
1488.0,1641.0,1928.0,1959.0,10560007.0,
1489.0,1641.0,1929.0,1948.0,10560011.0,
1489.0,1641.0,1927.0,1945.0,10560014.0,
1488.0,1643.0,1927.0,1941.0,10560018.0,
1487.0,1641.0,1927.0,1932.0,10560022.0,
1488.0,1642.0,1928.0,1925.0,10560025.0,
1487.0,1640.0,1926.0,1913.0,10560029.0,
1488.0,1643.0,1927.0,1917.0,10560033.0,
1489.0,1641.0,1929.0,1908.0,10560036.0,
1486.0,1641.0,1931.0,1903.0,10560040.0,
1489.0,1641.0,1932.0,1900.0,10560043.0,
1487.0,1641.0,1932.0,1896.0,10560047.0,
1487.0,1641.0,1935.0,1890.0,10560051.0,
1487.0,1641.0,1936.0,1885.0,10560054.0,
1486.0,1643.0,1941.0,1880.0,10560058.0,
1487.0,1641.0,1944.0,1878.0,10560062.0,
1487.0,1641.0,1948.0,1874.0,10560065.0,
1487.0,1641.0,1953.0,1873.0,10560069.0,
1487.0,1640.0,1956.0,1868.0,10560073.0,
1487.0,1641.0,1964.0,1863.0,10560076.0,
1486.0,1641.0,1966.0,1858.0,10560080.0,
1486.0,1645.0,1970.0,1856.0,10560083.0,
1486.0,1641.0,1974.0,1854.0,10560087.0,
1486.0,1640.0,1977.0,1847.0,10560091.0,
1486.0,1641.0,1982.0,1845.0,10560094.0,
1486.0,1642.0,1982.0,1842.0,10560098.0,
1487.0,1641.0,1987.0,1840.0,10560102.0,
1485.0,1641.0,1991.0,1839.0,10560105.0,
1484.0,1637.0,1993.0,1840.0,10560109.0,
1486.0,1641.0,1999.0,1839.0,10560113.0,
1485.0,1640.0,2000.0,1838.0,10560116.0,
1486.0,1639.0,2004.0,1843.0,10560120.0,
1485.0,1640.0,2005.0,1841.0,10560123.0,
1485.0,1641.0,2005.0,1841.0,10560127.0,
1483.0,1640.0,2006.0,1841.0,10560131.0,
1484.0,1640.0,2005.0,1841.0,10560134.0,
1485.0,1642.0,2005.0,1839.0,10560138.0,
1484.0,1641.0,2005.0,1838.0,10560142.0,
1484.0,1641.0,2007.0,1836.0,10560145.0,
1481.0,1640.0,2007.0,1834.0,10560149.0,
1484.0,1640.0,2007.0,1830.0,10560152.0,
1484.0,1641.0,2004.0,1826.0,10560156.0,
1484.0,1642.0,2004.0,1827.0,10560160.0,
1484.0,1640.0,2006.0,1820.0,10560163.0,
1484.0,1641.0,2006.0,1821.0,10560167.0,
1483.0,1641.0,2006.0,1818.0,10560171.0,
1483.0,1641.0,2007.0,1816.0,10560174.0,
1484.0,1641.0,2004.0,1815.0,10560178.0,
1484.0,1640.0,2004.0,1817.0,10560182.0,
1484.0,1639.0,2002.0,1812.0,10560185.0,
1484.0,1641.0,1999.0,1810.0,10560189.0,
1484.0,1641.0,2000.0,1807.0,10560192.0,
1482.0,1640.0,1999.0,1805.0,10560196.0,
1483.0,1641.0,1995.0,1806.0,10560200.0,
1483.0,1641.0,1994.0,1804.0,10560203.0,
1483.0,1640.0,1994.0,1798.0,10560207.0,
1484.0,1640.0,1991.0,1797.0,10560211.0,
1483.0,1640.0,1989.0,1791.0,10560214.0,
1483.0,1640.0,1989.0,1791.0,10560218.0,
1483.0,1640.0,1988.0,1784.0,10560222.0,
1483.0,1640.0,1987.0,1780.0,10560225.0,
1482.0,1641.0,1989.0,1775.0,10560229.0,
1482.0,1640.0,1987.0,1770.0,10560232.0,
1483.0,1640.0,1986.0,1764.0,10560236.0,
1483.0,1640.0,1987.0,1761.0,10560240.0,
1483.0,1640.0,1984.0,1757.0,10560243.0,
1478.0,1641.0,1985.0,1753.0,10560247.0,
1483.0,1640.0,1983.0,1754.0,10560251.0,
1480.0,1640.0,1984.0,1752.0,10560254.0,
1482.0,1642.0,1980.0,1751.0,10560258.0,
1482.0,1641.0,1981.0,1747.0,10560262.0,
1482.0,1643.0,1977.0,1748.0,10560265.0,
1482.0,1641.0,1976.0,1752.0,10560269.0,
1481.0,1640.0,1975.0,1755.0,10560272.0,
1482.0,1641.0,1974.0,1759.0,10560276.0,
1482.0,1640.0,1973.0,1769.0,10560280.0,
1481.0,1641.0,1972.0,1778.0,10560283.0,
1483.0,1639.0,1972.0,1790.0,10560287.0,
1482.0,1639.0,1972.0,1805.0,10560291.0,
1482.0,1642.0,1974.0,1818.0,10560294.0,
1482.0,1641.0,1979.0,1837.0,10560298.0,
1482.0,1641.0,1979.0,1862.0,10560302.0,
1482.0,1642.0,1985.0,1885.0,10560305.0,
1481.0,1641.0,1988.0,1914.0,10560309.0,
1482.0,1642.0,1991.0,1947.0,10560312.0,
1481.0,1642.0,1999.0,1976.0,10560316.0,
1481.0,1642.0,2008.0,2015.0,10560320.0,
1485.0,1641.0,2015.0,2047.0,10560323.0,
1481.0,1641.0,2026.0,2085.0,10560327.0,
1485.0,1643.0,2037.0,2123.0,10560331.0,
1481.0,1642.0,2047.0,2158.0,10560334.0,
1481.0,1642.0,2058.0,2196.0,10560338.0,
1481.0,1642.0,2072.0,2235.0,10560341.0,
1481.0,1642.0,2088.0,2273.0,10560345.0,
1482.0,1642.0,2105.0,2312.0,10560349.0,
1481.0,1643.0,2121.0,2351.0,10560352.0,
1482.0,1643.0,2136.0,2388.0,10560356.0,
1481.0,1642.0,2156.0,2433.0,10560360.0,
1482.0,1641.0,2175.0,2461.0,10560363.0,
1481.0,1643.0,2193.0,2495.0,10560367.0,
1481.0,1643.0,2212.0,2528.0,10560371.0,
1481.0,1643.0,2228.0,2556.0,10560374.0,
1481.0,1642.0,2246.0,2585.0,10560378.0,
1482.0,1643.0,2264.0,2609.0,10560381.0,
1480.0,1642.0,2280.0,2630.0,10560385.0,
1482.0,1643.0,2294.0,2655.0,10560389.0,
1482.0,1642.0,2309.0,2674.0,10560392.0,
1481.0,1643.0,2321.0,2695.0,10560396.0,
1482.0,1642.0,2332.0,2716.0,10560400.0,
1482.0,1643.0,2343.0,2728.0,10560403.0,
1481.0,1642.0,2350.0,2742.0,10560407.0,
1482.0,1642.0,2358.0,2760.0,10560411.0,
1481.0,1642.0,2364.0,2768.0,10560414.0,
1482.0,1643.0,2373.0,2778.0,10560418.0,
1482.0,1642.0,2369.0,2787.0,10560421.0,
1483.0,1643.0,2379.0,2793.0,10560425.0,
1481.0,1646.0,2379.0,2801.0,10560429.0,
1481.0,1642.0,2381.0,2804.0,10560432.0,
1482.0,1643.0,2382.0,2807.0,10560436.0,
1482.0,1643.0,2380.0,2809.0,10560440.0,
1482.0,1644.0,2378.0,2808.0,10560443.0,
1482.0,1642.0,2376.0,2808.0,10560447.0,
1483.0,1643.0,2371.0,2808.0,10560451.0,
1482.0,1646.0,2365.0,2804.0,10560454.0,
1481.0,1642.0,2363.0,2805.0,10560458.0,
1482.0,1643.0,2358.0,2804.0,10560461.0,
1483.0,1643.0,2349.0,2797.0,10560465.0,
1488.0,1643.0,2339.0,2794.0,10560469.0,
1482.0,1645.0,2336.0,2790.0,10560472.0,
1478.0,1642.0,2330.0,2783.0,10560476.0,
1483.0,1643.0,2323.0,2782.0,10560480.0,
1482.0,1642.0,2315.0,2776.0,10560483.0,
1484.0,1642.0,2310.0,2771.0,10560487.0,
1482.0,1642.0,2301.0,2766.0,10560491.0,
1482.0,1642.0,2292.0,2757.0,10560494.0,
1483.0,1642.0,2286.0,2749.0,10560498.0,
1482.0,1642.0,2280.0,2742.0,10560501.0,
1483.0,1642.0,2276.0,2734.0,10560505.0,
1483.0,1642.0,2270.0,2726.0,10560509.0,
1482.0,1641.0,2264.0,2717.0,10560512.0,
1482.0,1645.0,2257.0,2711.0,10560516.0,
1482.0,1642.0,2249.0,2703.0,10560520.0,
1483.0,1642.0,2244.0,2695.0,10560523.0,
1483.0,1642.0,2239.0,2687.0,10560527.0,
1484.0,1642.0,2234.0,2678.0,10560531.0,
1481.0,1641.0,2228.0,2665.0,10560534.0,
1482.0,1642.0,2221.0,2655.0,10560538.0,
1483.0,1643.0,2216.0,2640.0,10560541.0,
1483.0,1641.0,2213.0,2623.0,10560545.0,
1483.0,1642.0,2207.0,2608.0,10560549.0,
1483.0,1641.0,2202.0,2590.0,10560552.0,
1483.0,1642.0,2196.0,2572.0,10560556.0,
1484.0,1642.0,2190.0,2558.0,10560560.0,
1482.0,1640.0,2184.0,2542.0,10560563.0,
1483.0,1642.0,2179.0,2527.0,10560567.0,
1482.0,1640.0,2174.0,2513.0,10560570.0,
1483.0,1640.0,2167.0,2496.0,10560574.0,
1482.0,1644.0,2161.0,2483.0,10560578.0,
1482.0,1641.0,2154.0,2465.0,10560581.0,
1484.0,1642.0,2152.0,2452.0,10560585.0,
1483.0,1641.0,2145.0,2436.0,10560589.0,
1483.0,1640.0,2135.0,2423.0,10560592.0,
1483.0,1642.0,2130.0,2408.0,10560596.0,
1483.0,1641.0,2125.0,2396.0,10560600.0,
1483.0,1641.0,2119.0,2381.0,10560603.0,
1483.0,1642.0,2111.0,2370.0,10560607.0,
1483.0,1642.0,2109.0,2355.0,10560610.0,
1482.0,1641.0,2100.0,2343.0,10560614.0,
1482.0,1641.0,2093.0,2331.0,10560618.0,
1484.0,1641.0,2089.0,2320.0,10560621.0,
1483.0,1638.0,2083.0,2307.0,10560625.0,
1480.0,1641.0,2078.0,2299.0,10560629.0,
1483.0,1643.0,2075.0,2284.0,10560632.0,
1484.0,1640.0,2070.0,2274.0,10560636.0,
1483.0,1641.0,2068.0,2261.0,10560640.0,
1483.0,1640.0,2063.0,2251.0,10560643.0,
1482.0,1641.0,2062.0,2237.0,10560647.0,
1483.0,1641.0,2051.0,2231.0,10560650.0,
1483.0,1641.0,2053.0,2220.0,10560654.0,
1483.0,1641.0,2048.0,2215.0,10560658.0,
1484.0,1641.0,2050.0,2209.0,10560661.0,
1484.0,1641.0,2047.0,2201.0,10560665.0,
1483.0,1642.0,2044.0,2192.0,10560669.0,
1484.0,1639.0,2045.0,2188.0,10560672.0,
1482.0,1641.0,2041.0,2179.0,10560676.0,
1482.0,1641.0,2043.0,2177.0,10560680.0,
1482.0,1635.0,2044.0,2168.0,10560683.0,
1483.0,1640.0,2043.0,2162.0,10560687.0,
1483.0,1639.0,2041.0,2155.0,10560690.0,
1484.0,1639.0,2043.0,2145.0,10560694.0,
1482.0,1640.0,2043.0,2147.0,10560698.0,
1483.0,1639.0,2043.0,2136.0,10560701.0,
1482.0,1643.0,2042.0,2130.0,10560705.0,
1482.0,1641.0,2043.0,2122.0,10560709.0,
1483.0,1639.0,2042.0,2119.0,10560712.0,
1483.0,1639.0,2040.0,2109.0,10560716.0,
1481.0,1641.0,2040.0,2106.0,10560720.0,
1483.0,1639.0,2040.0,2100.0,10560723.0,
1483.0,1640.0,2041.0,2097.0,10560727.0,
1483.0,1640.0,2039.0,2093.0,10560730.0,
1477.0,1640.0,2040.0,2088.0,10560734.0,
1484.0,1640.0,2038.0,2089.0,10560738.0,
1482.0,1640.0,2036.0,2077.0,10560741.0,
1483.0,1643.0,2034.0,2072.0,10560745.0,
1483.0,1640.0,2033.0,2067.0,10560749.0,
1483.0,1640.0,2031.0,2064.0,10560752.0,
1483.0,1639.0,2029.0,2057.0,10560756.0,
1479.0,1641.0,2024.0,2054.0,10560759.0,
1482.0,1639.0,2025.0,2049.0,10560763.0,
1482.0,1640.0,2024.0,2045.0,10560767.0,
1482.0,1640.0,2021.0,2039.0,10560770.0,
1483.0,1640.0,2019.0,2035.0,10560774.0,
1482.0,1641.0,2019.0,2027.0,10560778.0,
1482.0,1641.0,2019.0,2024.0,10560781.0,
1483.0,1640.0,2018.0,2014.0,10560785.0,
1483.0,1641.0,2014.0,2012.0,10560789.0,
1482.0,1640.0,2014.0,2004.0,10560792.0,
1483.0,1641.0,2011.0,1994.0,10560796.0,
1481.0,1640.0,2008.0,1990.0,10560799.0,
1481.0,1640.0,2005.0,1982.0,10560803.0,
1483.0,1640.0,2000.0,1975.0,10560807.0,
1473.0,1639.0,1997.0,1967.0,10560810.0,
1481.0,1639.0,1993.0,1960.0,10560814.0,
1481.0,1640.0,1994.0,1956.0,10560818.0,
1483.0,1639.0,1987.0,1953.0,10560821.0,
1482.0,1640.0,1987.0,1946.0,10560825.0,
1481.0,1640.0,1983.0,1942.0,10560829.0,
1481.0,1639.0,1981.0,1939.0,10560832.0,
1482.0,1639.0,1981.0,1940.0,10560836.0,
1482.0,1639.0,1980.0,1933.0,10560839.0,
1482.0,1640.0,1977.0,1934.0,10560843.0,
1482.0,1639.0,1977.0,1924.0,10560847.0,
1481.0,1639.0,1976.0,1925.0,10560850.0,
1482.0,1637.0,1976.0,1921.0,10560854.0,
1486.0,1640.0,1974.0,1924.0,10560858.0,
1480.0,1639.0,1974.0,1925.0,10560861.0,
1481.0,1640.0,1976.0,1925.0,10560865.0,
1482.0,1640.0,1974.0,1923.0,10560869.0,
1482.0,1640.0,1972.0,1924.0,10560872.0,
1481.0,1641.0,1974.0,1919.0,10560876.0,
1481.0,1639.0,1973.0,1919.0,10560879.0,
1481.0,1641.0,1971.0,1918.0,10560883.0,
1480.0,1640.0,1970.0,1915.0,10560887.0,
1481.0,1640.0,1968.0,1914.0,10560890.0,
1481.0,1639.0,1968.0,1908.0,10560894.0,
1481.0,1639.0,1965.0,1902.0,10560898.0,
1480.0,1640.0,1963.0,1901.0,10560901.0,
1480.0,1639.0,1963.0,1895.0,10560905.0,
1481.0,1640.0,1962.0,1893.0,10560909.0,
1481.0,1640.0,1959.0,1890.0,10560912.0,
1479.0,1639.0,1960.0,1886.0,10560916.0,
1486.0,1639.0,1958.0,1883.0,10560919.0,
1480.0,1640.0,1959.0,1884.0,10560923.0,
1480.0,1640.0,1960.0,1879.0,10560927.0,
1480.0,1638.0,1959.0,1878.0,10560930.0,
1480.0,1640.0,1959.0,1875.0,10560934.0,
1473.0,1639.0,1959.0,1875.0,10560938.0,
1481.0,1639.0,1960.0,1876.0,10560941.0,
1480.0,1644.0,1960.0,1873.0,10560945.0,
1481.0,1641.0,1962.0,1872.0,10560949.0,
1480.0,1640.0,1964.0,1873.0,10560952.0,
1479.0,1640.0,1962.0,1872.0,10560956.0,
1480.0,1638.0,1962.0,1875.0,10560959.0,
1480.0,1640.0,1961.0,1874.0,10560963.0,
1480.0,1639.0,1959.0,1873.0,10560967.0,
1479.0,1640.0,1961.0,1878.0,10560970.0,
1478.0,1640.0,1962.0,1874.0,10560974.0,
1478.0,1640.0,1961.0,1878.0,10560978.0,
1481.0,1639.0,1961.0,1877.0,10560981.0,
1479.0,1640.0,1959.0,1870.0,10560985.0,
1478.0,1639.0,1957.0,1870.0,10560988.0,
1479.0,1639.0,1962.0,1869.0,10560992.0,
1479.0,1639.0,1963.0,1866.0,10560996.0,
1479.0,1639.0,1965.0,1866.0,10560999.0,
1479.0,1639.0,1967.0,1863.0,10561003.0,
1478.0,1640.0,1964.0,1861.0,10561007.0,
1478.0,1639.0,1966.0,1863.0,10561010.0,
1478.0,1639.0,1964.0,1862.0,10561014.0,
1474.0,1640.0,1965.0,1862.0,10561018.0,
1478.0,1640.0,1963.0,1861.0,10561021.0,
1478.0,1639.0,1961.0,1859.0,10561025.0,
1477.0,1639.0,1961.0,1862.0,10561028.0,
1478.0,1639.0,1963.0,1859.0,10561032.0,
1477.0,1642.0,1961.0,1857.0,10561036.0,
1479.0,1640.0,1962.0,1856.0,10561039.0,
1478.0,1639.0,1964.0,1853.0,10561043.0,
1478.0,1639.0,1962.0,1852.0,10561047.0,
1477.0,1639.0,1964.0,1852.0,10561050.0,
1477.0,1639.0,1961.0,1850.0,10561054.0,
1478.0,1638.0,1965.0,1849.0,10561058.0,
1477.0,1639.0,1965.0,1849.0,10561061.0,
1479.0,1639.0,1970.0,1843.0,10561065.0,
1477.0,1640.0,1971.0,1844.0,10561068.0,
1477.0,1639.0,1972.0,1845.0,10561072.0,
1477.0,1639.0,1974.0,1840.0,10561076.0,
1477.0,1637.0,1975.0,1834.0,10561079.0,
1477.0,1637.0,1977.0,1827.0,10561083.0,
1477.0,1638.0,1978.0,1832.0,10561087.0,
1475.0,1638.0,1982.0,1817.0,10561090.0,
1476.0,1639.0,1984.0,1813.0,10561094.0,
1476.0,1639.0,1985.0,1810.0,10561098.0,
1475.0,1639.0,1983.0,1811.0,10561101.0,
1474.0,1639.0,1982.0,1810.0,10561105.0,
1475.0,1639.0,1982.0,1813.0,10561108.0,
1474.0,1639.0,1982.0,1817.0,10561112.0,
1475.0,1639.0,1985.0,1816.0,10561116.0,
1475.0,1638.0,1985.0,1819.0,10561119.0,
1475.0,1638.0,1987.0,1819.0,10561123.0,
1477.0,1640.0,1986.0,1819.0,10561127.0,
1473.0,1639.0,1988.0,1822.0,10561130.0,
1474.0,1638.0,1989.0,1825.0,10561134.0,
1474.0,1638.0,1987.0,1826.0,10561138.0,
1475.0,1639.0,1988.0,1832.0,10561141.0,
1474.0,1638.0,1987.0,1832.0,10561145.0,
1473.0,1639.0,1988.0,1837.0,10561148.0,
1473.0,1638.0,1986.0,1840.0,10561152.0,
1473.0,1640.0,1985.0,1842.0,10561156.0,
1473.0,1639.0,1983.0,1846.0,10561159.0,
1473.0,1638.0,1982.0,1858.0,10561163.0,
1474.0,1639.0,1978.0,1854.0,10561167.0,
1473.0,1639.0,1977.0,1862.0,10561170.0,
1473.0,1640.0,1975.0,1872.0,10561174.0,
1473.0,1638.0,1975.0,1876.0,10561177.0,
1471.0,1639.0,1975.0,1885.0,10561181.0,
1475.0,1639.0,1977.0,1890.0,10561185.0,
1473.0,1639.0,1975.0,1896.0,10561188.0,
1472.0,1639.0,1976.0,1904.0,10561192.0,
1472.0,1639.0,1975.0,1911.0,10561196.0,
1472.0,1639.0,1975.0,1920.0,10561199.0,
1472.0,1639.0,1976.0,1927.0,10561203.0,
1471.0,1638.0,1974.0,1935.0,10561207.0,
1473.0,1639.0,1973.0,1947.0,10561210.0,
1471.0,1638.0,1973.0,1955.0,10561214.0,
