EDA,Resp,PPG Finger,PPG Ear,arduino_ts,event_code
1657.0,1646.0,1944.0,2050.0,11072563.0,
1657.0,1648.0,1946.0,2037.0,11072567.0,
1657.0,1646.0,1945.0,2024.0,11072570.0,
1657.0,1647.0,1946.0,2008.0,11072574.0,
1656.0,1648.0,1946.0,1997.0,11072577.0,
1656.0,1648.0,1945.0,1978.0,11072581.0,
1657.0,1647.0,1943.0,1965.0,11072585.0,
1654.0,1647.0,1941.0,1945.0,11072588.0,
1655.0,1646.0,1939.0,1931.0,11072592.0,
1654.0,1649.0,1937.0,1917.0,11072596.0,
1654.0,1647.0,1933.0,1903.0,11072599.0,
1655.0,1646.0,1933.0,1885.0,11072603.0,
1653.0,1646.0,1932.0,1873.0,11072606.0,
1653.0,1647.0,1926.0,1854.0,11072610.0,
1653.0,1645.0,1923.0,1840.0,11072614.0,
1652.0,1646.0,1921.0,1825.0,11072617.0,
1653.0,1646.0,1916.0,1807.0,11072621.0,
1652.0,1645.0,1914.0,1789.0,11072625.0,
1652.0,1646.0,1908.0,1782.0,11072628.0,
1654.0,1646.0,1906.0,1767.0,11072632.0,
1651.0,1648.0,1899.0,1752.0,11072636.0,
1651.0,1646.0,1893.0,1739.0,11072639.0,
1651.0,1647.0,1888.0,1723.0,11072643.0,
1650.0,1646.0,1883.0,1712.0,11072646.0,
1649.0,1647.0,1880.0,1699.0,11072650.0,
1649.0,1646.0,1877.0,1688.0,11072654.0,
1646.0,1646.0,1872.0,1673.0,11072657.0,
1648.0,1645.0,1871.0,1663.0,11072661.0,
1648.0,1645.0,1869.0,1652.0,11072665.0,
1648.0,1646.0,1867.0,1646.0,11072668.0,
1648.0,1646.0,1866.0,1636.0,11072672.0,
1647.0,1645.0,1865.0,1632.0,11072676.0,
1648.0,1645.0,1862.0,1626.0,11072679.0,
1647.0,1646.0,1865.0,1622.0,11072683.0,
1646.0,1643.0,1862.0,1614.0,11072686.0,
1646.0,1645.0,1862.0,1614.0,11072690.0,
1646.0,1644.0,1860.0,1602.0,11072694.0,
1644.0,1645.0,1859.0,1600.0,11072697.0,
1645.0,1645.0,1856.0,1593.0,11072701.0,
1645.0,1644.0,1854.0,1592.0,11072705.0,
1645.0,1645.0,1854.0,1588.0,11072708.0,
1644.0,1646.0,1854.0,1584.0,11072712.0,
1637.0,1646.0,1855.0,1578.0,11072716.0,
1645.0,1646.0,1855.0,1578.0,11072719.0,
1643.0,1646.0,1855.0,1575.0,11072723.0,
1643.0,1646.0,1855.0,1573.0,11072726.0,
1643.0,1646.0,1855.0,1568.0,11072730.0,
1642.0,1646.0,1853.0,1564.0,11072734.0,
1642.0,1646.0,1855.0,1558.0,11072737.0,
1641.0,1647.0,1853.0,1557.0,11072741.0,
1642.0,1645.0,1853.0,1553.0,11072745.0,
1641.0,1645.0,1852.0,1551.0,11072748.0,
1641.0,1645.0,1853.0,1546.0,11072752.0,
1640.0,1645.0,1852.0,1546.0,11072756.0,
1641.0,1646.0,1853.0,1541.0,11072759.0,
1642.0,1645.0,1851.0,1538.0,11072763.0,
1640.0,1645.0,1851.0,1536.0,11072766.0,
1639.0,1647.0,1851.0,1536.0,11072770.0,
1639.0,1645.0,1850.0,1528.0,11072774.0,
1639.0,1645.0,1851.0,1526.0,11072777.0,
1638.0,1643.0,1850.0,1520.0,11072781.0,
1638.0,1646.0,1852.0,1520.0,11072785.0,
1637.0,1646.0,1855.0,1513.0,11072788.0,
1638.0,1647.0,1857.0,1513.0,11072792.0,
1638.0,1647.0,1859.0,1510.0,11072796.0,
1636.0,1645.0,1862.0,1507.0,11072799.0,
1635.0,1645.0,1865.0,1502.0,11072803.0,
1636.0,1647.0,1868.0,1500.0,11072806.0,
1637.0,1647.0,1867.0,1497.0,11072810.0,
1635.0,1646.0,1871.0,1492.0,11072814.0,
1635.0,1650.0,1873.0,1490.0,11072817.0,
1635.0,1648.0,1869.0,1484.0,11072821.0,
1634.0,1647.0,1877.0,1482.0,11072825.0,
1635.0,1647.0,1885.0,1479.0,11072828.0,
1635.0,1648.0,1880.0,1477.0,11072832.0,
1634.0,1645.0,1882.0,1476.0,11072835.0,
1633.0,1645.0,1885.0,1474.0,11072839.0,
1633.0,1647.0,1888.0,1472.0,11072843.0,
1633.0,1649.0,1886.0,1477.0,11072846.0,
1633.0,1647.0,1888.0,1473.0,11072850.0,
1632.0,1646.0,1887.0,1474.0,11072854.0,
1632.0,1647.0,1888.0,1475.0,11072857.0,
1637.0,1645.0,1890.0,1472.0,11072861.0,
1631.0,1646.0,1890.0,1472.0,11072865.0,
1631.0,1646.0,1890.0,1475.0,11072868.0,
1631.0,1648.0,1891.0,1470.0,11072872.0,
1631.0,1648.0,1892.0,1470.0,11072875.0,
1631.0,1647.0,1892.0,1471.0,11072879.0,
1630.0,1648.0,1893.0,1469.0,11072883.0,
1630.0,1647.0,1893.0,1467.0,11072886.0,
1628.0,1646.0,1894.0,1462.0,11072890.0,
1629.0,1648.0,1891.0,1461.0,11072894.0,
1629.0,1646.0,1892.0,1458.0,11072897.0,
1629.0,1649.0,1888.0,1457.0,11072901.0,
1628.0,1647.0,1891.0,1454.0,11072905.0,
1628.0,1648.0,1892.0,1453.0,11072908.0,
1628.0,1649.0,1892.0,1449.0,11072912.0,
1627.0,1647.0,1891.0,1448.0,11072915.0,
1627.0,1648.0,1891.0,1452.0,11072919.0,
1627.0,1647.0,1890.0,1449.0,11072923.0,
1626.0,1647.0,1891.0,1449.0,11072926.0,
1627.0,1648.0,1890.0,1445.0,11072930.0,
1627.0,1648.0,1890.0,1447.0,11072934.0,
1629.0,1648.0,1890.0,1444.0,11072937.0,
1625.0,1650.0,1892.0,1443.0,11072941.0,
1625.0,1650.0,1893.0,1441.0,11072945.0,
1625.0,1648.0,1895.0,1438.0,11072948.0,
1625.0,1649.0,1898.0,1437.0,11072952.0,
1625.0,1649.0,1899.0,1434.0,11072955.0,
1623.0,1650.0,1899.0,1430.0,11072959.0,
1625.0,1650.0,1900.0,1427.0,11072963.0,
1624.0,1649.0,1903.0,1426.0,11072966.0,
1623.0,1650.0,1899.0,1422.0,11072970.0,
1623.0,1650.0,1900.0,1418.0,11072974.0,
1623.0,1650.0,1901.0,1418.0,11072977.0,
1622.0,1649.0,1898.0,1413.0,11072981.0,
1622.0,1651.0,1898.0,1413.0,11072985.0,
1622.0,1650.0,1898.0,1412.0,11072988.0,
1621.0,1650.0,1898.0,1415.0,11072992.0,
1622.0,1651.0,1897.0,1415.0,11072995.0,
1615.0,1651.0,1895.0,1423.0,11072999.0,
1621.0,1650.0,1896.0,1436.0,11073003.0,
1620.0,1649.0,1897.0,1457.0,11073006.0,
1621.0,1650.0,1893.0,1478.0,11073010.0,
1615.0,1651.0,1896.0,1508.0,11073014.0,
1621.0,1651.0,1897.0,1541.0,11073017.0,
1620.0,1651.0,1896.0,1583.0,11073021.0,
1620.0,1650.0,1899.0,1631.0,11073024.0,
1619.0,1650.0,1901.0,1683.0,11073028.0,
1619.0,1650.0,1905.0,1742.0,11073032.0,
1619.0,1651.0,1909.0,1810.0,11073035.0,
1618.0,1651.0,1917.0,1879.0,11073039.0,
1618.0,1652.0,1926.0,1955.0,11073043.0,
1617.0,1651.0,1935.0,2034.0,11073046.0,
1618.0,1651.0,1949.0,2118.0,11073050.0,
1617.0,1650.0,1963.0,2209.0,11073054.0,
1613.0,1650.0,1981.0,2298.0,11073057.0,
1617.0,1651.0,1998.0,2390.0,11073061.0,
1616.0,1652.0,2021.0,2481.0,11073064.0,
1617.0,1652.0,2043.0,2570.0,11073068.0,
1616.0,1651.0,2068.0,2660.0,11073072.0,
1621.0,1651.0,2098.0,2743.0,11073075.0,
1616.0,1651.0,2128.0,2827.0,11073079.0,
1616.0,1650.0,2160.0,2907.0,11073083.0,
1615.0,1650.0,2194.0,2979.0,11073086.0,
1616.0,1652.0,2233.0,3047.0,11073090.0,
1616.0,1651.0,2270.0,3112.0,11073094.0,
1616.0,1652.0,2303.0,3169.0,11073097.0,
1615.0,1652.0,2349.0,3226.0,11073101.0,
1611.0,1651.0,2390.0,3270.0,11073104.0,
1615.0,1652.0,2429.0,3314.0,11073108.0,
1613.0,1651.0,2469.0,3350.0,11073112.0,
1615.0,1652.0,2507.0,3372.0,11073115.0,
1615.0,1652.0,2544.0,3400.0,11073119.0,
1614.0,1652.0,2578.0,3416.0,11073123.0,
1614.0,1652.0,2613.0,3429.0,11073126.0,
1615.0,1653.0,2645.0,3432.0,11073130.0,
1614.0,1652.0,2667.0,3433.0,11073134.0,
1614.0,1653.0,2701.0,3429.0,11073137.0,
1613.0,1654.0,2724.0,3426.0,11073141.0,
1614.0,1652.0,2744.0,3417.0,11073144.0,
1613.0,1651.0,2762.0,3410.0,11073148.0,
1612.0,1653.0,2775.0,3399.0,11073152.0,
1613.0,1658.0,2787.0,3386.0,11073155.0,
1613.0,1654.0,2793.0,3371.0,11073159.0,
1612.0,1655.0,2797.0,3352.0,11073163.0,
1612.0,1654.0,2797.0,3332.0,11073166.0,
1613.0,1654.0,2795.0,3312.0,11073170.0,
1611.0,1653.0,2789.0,3295.0,11073174.0,
1612.0,1654.0,2780.0,3270.0,11073177.0,
1611.0,1653.0,2769.0,3247.0,11073181.0,
1610.0,1654.0,2757.0,3221.0,11073184.0,
1612.0,1656.0,2742.0,3195.0,11073188.0,
1612.0,1654.0,2726.0,3169.0,11073192.0,
1609.0,1655.0,2708.0,3145.0,11073195.0,
1610.0,1654.0,2688.0,3119.0,11073199.0,
1607.0,1655.0,2669.0,3090.0,11073203.0,
1611.0,1655.0,2647.0,3063.0,11073206.0,
1609.0,1656.0,2625.0,3037.0,11073210.0,
1610.0,1655.0,2601.0,3007.0,11073214.0,
1610.0,1656.0,2581.0,2979.0,11073217.0,
1608.0,1656.0,2560.0,2951.0,11073221.0,
1609.0,1660.0,2537.0,2916.0,11073224.0,
1609.0,1655.0,2515.0,2889.0,11073228.0,
1609.0,1656.0,2492.0,2859.0,11073232.0,
1609.0,1656.0,2471.0,2831.0,11073235.0,
1609.0,1656.0,2452.0,2803.0,11073239.0,
1609.0,1656.0,2430.0,2772.0,11073243.0,
1608.0,1656.0,2411.0,2744.0,11073246.0,
1607.0,1657.0,2393.0,2713.0,11073250.0,
1602.0,1656.0,2374.0,2683.0,11073253.0,
1608.0,1655.0,2355.0,2654.0,11073257.0,
1607.0,1655.0,2335.0,2623.0,11073261.0,
1607.0,1655.0,2320.0,2594.0,11073264.0,
1607.0,1657.0,2303.0,2565.0,11073268.0,
1605.0,1656.0,2286.0,2529.0,11073272.0,
1606.0,1657.0,2268.0,2498.0,11073275.0,
1606.0,1656.0,2256.0,2456.0,11073279.0,
1610.0,1658.0,2241.0,2422.0,11073283.0,
1605.0,1655.0,2226.0,2384.0,11073286.0,
1605.0,1656.0,2213.0,2351.0,11073290.0,
1605.0,1658.0,2193.0,2314.0,11073293.0,
1605.0,1657.0,2179.0,2287.0,11073297.0,
1604.0,1656.0,2161.0,2254.0,11073301.0,
1604.0,1658.0,2147.0,2223.0,11073304.0,
1603.0,1657.0,2132.0,2201.0,11073308.0,
1604.0,1658.0,2119.0,2180.0,11073312.0,
1603.0,1658.0,2102.0,2158.0,11073315.0,
1602.0,1658.0,2092.0,2137.0,11073319.0,
1601.0,1653.0,2075.0,2116.0,11073323.0,
1602.0,1656.0,2064.0,2097.0,11073326.0,
1602.0,1657.0,2051.0,2087.0,11073330.0,
1603.0,1658.0,2042.0,2071.0,11073333.0,
1602.0,1658.0,2032.0,2060.0,11073337.0,
1600.0,1657.0,2022.0,2049.0,11073341.0,
1601.0,1662.0,2012.0,2038.0,11073344.0,
1601.0,1657.0,2005.0,2034.0,11073348.0,
1601.0,1658.0,1997.0,2024.0,11073352.0,
1600.0,1658.0,1995.0,2018.0,11073355.0,
1600.0,1657.0,1989.0,2008.0,11073359.0,
1602.0,1658.0,1986.0,2009.0,11073363.0,
1597.0,1659.0,1984.0,2004.0,11073366.0,
1599.0,1659.0,1982.0,2001.0,11073370.0,
1599.0,1659.0,1983.0,1999.0,11073373.0,
1600.0,1663.0,1984.0,1996.0,11073377.0,
1599.0,1661.0,1984.0,1995.0,11073381.0,
1598.0,1662.0,1988.0,1996.0,11073384.0,
1598.0,1659.0,1991.0,1997.0,11073388.0,
1599.0,1660.0,1994.0,1997.0,11073392.0,
1599.0,1659.0,1998.0,1997.0,11073395.0,
1598.0,1660.0,2003.0,1997.0,11073399.0,
1597.0,1659.0,2007.0,1997.0,11073403.0,
1598.0,1659.0,2014.0,1998.0,11073406.0,
1597.0,1659.0,2019.0,1997.0,11073410.0,
1598.0,1659.0,2028.0,1995.0,11073413.0,
1597.0,1659.0,2032.0,1994.0,11073417.0,
1597.0,1658.0,2038.0,1991.0,11073421.0,
1597.0,1660.0,2045.0,1985.0,11073424.0,
1597.0,1660.0,2051.0,1985.0,11073428.0,
1596.0,1660.0,2053.0,1981.0,11073432.0,
1596.0,1662.0,2063.0,1976.0,11073435.0,
1595.0,1660.0,2069.0,1971.0,11073439.0,
1594.0,1662.0,2074.0,1956.0,11073442.0,
1596.0,1660.0,2078.0,1946.0,11073446.0,
1597.0,1660.0,2081.0,1938.0,11073450.0,
1595.0,1661.0,2085.0,1923.0,11073453.0,
1595.0,1660.0,2087.0,1911.0,11073457.0,
1595.0,1659.0,2088.0,1901.0,11073461.0,
1594.0,1660.0,2087.0,1890.0,11073464.0,
1594.0,1661.0,2089.0,1881.0,11073468.0,
1594.0,1660.0,2085.0,1869.0,11073472.0,
1594.0,1660.0,2087.0,1859.0,11073475.0,
1593.0,1658.0,2086.0,1847.0,11073479.0,
1591.0,1660.0,2084.0,1833.0,11073482.0,
1594.0,1660.0,2081.0,1825.0,11073486.0,
1593.0,1660.0,2076.0,1819.0,11073490.0,
1593.0,1656.0,2073.0,1806.0,11073493.0,
1592.0,1661.0,2069.0,1801.0,11073497.0,
1592.0,1661.0,2066.0,1788.0,11073501.0,
1592.0,1659.0,2060.0,1779.0,11073504.0,
1592.0,1656.0,2056.0,1769.0,11073508.0,
1591.0,1659.0,2050.0,1757.0,11073512.0,
1591.0,1659.0,2044.0,1745.0,11073515.0,
1592.0,1659.0,2037.0,1738.0,11073519.0,
1591.0,1658.0,2028.0,1724.0,11073522.0,
1591.0,1661.0,2020.0,1714.0,11073526.0,
1591.0,1657.0,2014.0,1702.0,11073530.0,
1591.0,1659.0,2006.0,1694.0,11073533.0,
1590.0,1658.0,2001.0,1684.0,11073537.0,
1588.0,1658.0,1993.0,1678.0,11073541.0,
1591.0,1659.0,1989.0,1666.0,11073544.0,
1591.0,1659.0,1981.0,1659.0,11073548.0,
1591.0,1654.0,1978.0,1653.0,11073552.0,
1590.0,1659.0,1969.0,1642.0,11073555.0,
1590.0,1666.0,1968.0,1637.0,11073559.0,
1588.0,1658.0,1958.0,1633.0,11073562.0,
1590.0,1659.0,1957.0,1628.0,11073566.0,
1590.0,1657.0,1955.0,1623.0,11073570.0,
1589.0,1658.0,1951.0,1618.0,11073573.0,
1588.0,1657.0,1946.0,1614.0,11073577.0,
1588.0,1657.0,1942.0,1612.0,11073581.0,
1588.0,1658.0,1939.0,1612.0,11073584.0,
1589.0,1658.0,1936.0,1606.0,11073588.0,
1587.0,1659.0,1937.0,1601.0,11073592.0,
1586.0,1657.0,1932.0,1598.0,11073595.0,
1587.0,1657.0,1933.0,1596.0,11073599.0,
1587.0,1660.0,1930.0,1596.0,11073602.0,
1587.0,1658.0,1929.0,1594.0,11073606.0,
1586.0,1658.0,1927.0,1591.0,11073610.0,
1587.0,1657.0,1924.0,1590.0,11073613.0,
1587.0,1657.0,1923.0,1591.0,11073617.0,
1586.0,1657.0,1925.0,1588.0,11073621.0,
1586.0,1657.0,1926.0,1588.0,11073624.0,
1585.0,1658.0,1928.0,1588.0,11073628.0,
1589.0,1655.0,1929.0,1586.0,11073631.0,
1585.0,1656.0,1930.0,1586.0,11073635.0,
1585.0,1656.0,1931.0,1587.0,11073639.0,
1585.0,1655.0,1936.0,1586.0,11073642.0,
1584.0,1657.0,1938.0,1587.0,11073646.0,
1585.0,1658.0,1941.0,1587.0,11073650.0,
1583.0,1657.0,1941.0,1586.0,11073653.0,
1583.0,1656.0,1942.0,1587.0,11073657.0,
1585.0,1656.0,1946.0,1587.0,11073661.0,
1583.0,1655.0,1950.0,1589.0,11073664.0,
1583.0,1656.0,1952.0,1591.0,11073668.0,
1583.0,1656.0,1952.0,1587.0,11073671.0,
1583.0,1656.0,1953.0,1588.0,11073675.0,
1583.0,1658.0,1954.0,1582.0,11073679.0,
1583.0,1655.0,1954.0,1580.0,11073682.0,
1582.0,1656.0,1955.0,1575.0,11073686.0,
1582.0,1655.0,1953.0,1566.0,11073690.0,
1581.0,1655.0,1951.0,1568.0,11073693.0,
1581.0,1654.0,1950.0,1564.0,11073697.0,
1583.0,1654.0,1948.0,1560.0,11073701.0,
1581.0,1655.0,1949.0,1557.0,11073704.0,
1582.0,1653.0,1948.0,1552.0,11073708.0,
1580.0,1655.0,1946.0,1548.0,11073711.0,
1580.0,1656.0,1944.0,1544.0,11073715.0,
1580.0,1655.0,1943.0,1545.0,11073719.0,
1579.0,1653.0,1942.0,1541.0,11073722.0,
1579.0,1657.0,1943.0,1538.0,11073726.0,
1579.0,1653.0,1938.0,1538.0,11073730.0,
1579.0,1654.0,1935.0,1534.0,11073733.0,
1578.0,1654.0,1934.0,1532.0,11073737.0,
1578.0,1654.0,1931.0,1527.0,11073741.0,
1578.0,1659.0,1927.0,1522.0,11073744.0,
1578.0,1654.0,1924.0,1520.0,11073748.0,
1578.0,1655.0,1923.0,1516.0,11073751.0,
1578.0,1654.0,1921.0,1510.0,11073755.0,
1577.0,1654.0,1918.0,1508.0,11073759.0,
1582.0,1653.0,1917.0,1503.0,11073762.0,
1577.0,1653.0,1914.0,1497.0,11073766.0,
1576.0,1653.0,1911.0,1493.0,11073770.0,
1576.0,1654.0,1909.0,1482.0,11073773.0,
1576.0,1656.0,1905.0,1477.0,11073777.0,
1580.0,1654.0,1901.0,1471.0,11073781.0,
1576.0,1654.0,1896.0,1466.0,11073784.0,
1575.0,1653.0,1894.0,1461.0,11073788.0,
1575.0,1655.0,1888.0,1455.0,11073791.0,
1576.0,1653.0,1879.0,1451.0,11073795.0,
1576.0,1648.0,1882.0,1445.0,11073799.0,
1575.0,1650.0,1880.0,1440.0,11073802.0,
1576.0,1653.0,1877.0,1439.0,11073806.0,
1575.0,1653.0,1876.0,1437.0,11073810.0,
1576.0,1652.0,1872.0,1438.0,11073813.0,
1575.0,1652.0,1873.0,1442.0,11073817.0,
1574.0,1653.0,1873.0,1449.0,11073821.0,
1574.0,1653.0,1875.0,1458.0,11073824.0,
1575.0,1649.0,1875.0,1473.0,11073828.0,
1574.0,1653.0,1875.0,1491.0,11073831.0,
1574.0,1653.0,1876.0,1512.0,11073835.0,
1574.0,1653.0,1878.0,1541.0,11073839.0,
1574.0,1653.0,1879.0,1572.0,11073842.0,
1574.0,1652.0,1881.0,1615.0,11073846.0,
1574.0,1652.0,1885.0,1658.0,11073850.0,
1574.0,1652.0,1890.0,1708.0,11073853.0,
1575.0,1653.0,1895.0,1765.0,11073857.0,
1573.0,1653.0,1902.0,1822.0,11073860.0,
1574.0,1651.0,1912.0,1889.0,11073864.0,
1573.0,1652.0,1925.0,1958.0,11073868.0,
1573.0,1652.0,1937.0,2031.0,11073871.0,
1574.0,1652.0,1956.0,2106.0,11073875.0,
1574.0,1652.0,1971.0,2186.0,11073879.0,
1572.0,1652.0,1996.0,2258.0,11073882.0,
1574.0,1652.0,2018.0,2338.0,11073886.0,
1574.0,1654.0,2048.0,2415.0,11073890.0,
1573.0,1652.0,2079.0,2490.0,11073893.0,
1573.0,1651.0,2113.0,2564.0,11073897.0,
1577.0,1652.0,2152.0,2637.0,11073900.0,
1573.0,1652.0,2191.0,2707.0,11073904.0,
1574.0,1653.0,2231.0,2775.0,11073908.0,
1574.0,1652.0,2268.0,2836.0,11073911.0,
1573.0,1652.0,2323.0,2893.0,11073915.0,
1573.0,1658.0,2364.0,2948.0,11073919.0,
1573.0,1652.0,2409.0,2993.0,11073922.0,
1573.0,1651.0,2454.0,3037.0,11073926.0,
1573.0,1651.0,2499.0,3071.0,11073930.0,
1573.0,1651.0,2538.0,3102.0,11073933.0,
1574.0,1653.0,2585.0,3129.0,11073937.0,
1573.0,1651.0,2623.0,3152.0,11073940.0,
1573.0,1651.0,2661.0,3165.0,11073944.0,
1573.0,1652.0,2699.0,3180.0,11073948.0,
1572.0,1651.0,2729.0,3186.0,11073951.0,
1578.0,1649.0,2763.0,3192.0,11073955.0,
1572.0,1651.0,2789.0,3190.0,11073959.0,
1573.0,1652.0,2815.0,3190.0,11073962.0,
1572.0,1651.0,2831.0,3185.0,11073966.0,
1573.0,1651.0,2845.0,3177.0,11073970.0,
1574.0,1653.0,2857.0,3164.0,11073973.0,
1573.0,1653.0,2865.0,3153.0,11073977.0,
1574.0,1652.0,2868.0,3138.0,11073980.0,
1573.0,1651.0,2869.0,3119.0,11073984.0,
1573.0,1652.0,2866.0,3100.0,11073988.0,
1573.0,1652.0,2858.0,3081.0,11073991.0,
1573.0,1651.0,2850.0,3061.0,11073995.0,
1572.0,1652.0,2839.0,3040.0,11073999.0,
1573.0,1651.0,2825.0,3019.0,11074002.0,
1568.0,1653.0,2807.0,3002.0,11074006.0,
1573.0,1653.0,2789.0,2976.0,11074010.0,
1573.0,1650.0,2768.0,2948.0,11074013.0,
1573.0,1652.0,2747.0,2927.0,11074017.0,
1573.0,1651.0,2723.0,2897.0,11074020.0,
1573.0,1651.0,2700.0,2876.0,11074024.0,
1573.0,1651.0,2676.0,2841.0,11074028.0,
1573.0,1651.0,2652.0,2818.0,11074031.0,
1573.0,1650.0,2627.0,2790.0,11074035.0,
1572.0,1651.0,2601.0,2763.0,11074039.0,
1573.0,1651.0,2577.0,2738.0,11074042.0,
1572.0,1651.0,2552.0,2709.0,11074046.0,
1572.0,1651.0,2526.0,2682.0,11074049.0,
1572.0,1650.0,2500.0,2649.0,11074053.0,
1577.0,1651.0,2479.0,2622.0,11074057.0,
1569.0,1651.0,2455.0,2591.0,11074060.0,
1572.0,1650.0,2432.0,2562.0,11074064.0,
1574.0,1650.0,2408.0,2528.0,11074068.0,
1573.0,1651.0,2389.0,2498.0,11074071.0,
1565.0,1650.0,2370.0,2464.0,11074075.0,
1573.0,1651.0,2354.0,2432.0,11074079.0,
1572.0,1652.0,2330.0,2397.0,11074082.0,
1571.0,1650.0,2313.0,2365.0,11074086.0,
1572.0,1651.0,2293.0,2333.0,11074089.0,
1572.0,1651.0,2276.0,2299.0,11074093.0,
1571.0,1649.0,2260.0,2268.0,11074097.0,
1572.0,1650.0,2242.0,2237.0,11074100.0,
1571.0,1649.0,2226.0,2206.0,11074104.0,
1573.0,1650.0,2210.0,2180.0,11074108.0,
1572.0,1647.0,2194.0,2157.0,11074111.0,
1571.0,1650.0,2178.0,2132.0,11074115.0,
1571.0,1650.0,2162.0,2113.0,11074119.0,
1572.0,1650.0,2145.0,2090.0,11074122.0,
1572.0,1648.0,2130.0,2073.0,11074126.0,
1572.0,1650.0,2115.0,2055.0,11074129.0,
1571.0,1649.0,2100.0,2040.0,11074133.0,
1571.0,1649.0,2089.0,2025.0,11074137.0,
1571.0,1652.0,2075.0,2012.0,11074140.0,
1572.0,1650.0,2063.0,2003.0,11074144.0,
1572.0,1650.0,2053.0,1996.0,11074148.0,
1572.0,1649.0,2042.0,1989.0,11074151.0,
1568.0,1650.0,2032.0,1988.0,11074155.0,
1570.0,1650.0,2024.0,1987.0,11074159.0,
1571.0,1649.0,2017.0,1987.0,11074162.0,
1571.0,1648.0,2013.0,1987.0,11074166.0,
1572.0,1650.0,2008.0,1988.0,11074169.0,
1570.0,1651.0,2004.0,1988.0,11074173.0,
1571.0,1645.0,2000.0,1991.0,11074177.0,
1571.0,1649.0,2000.0,1990.0,11074180.0,
1572.0,1649.0,1998.0,1994.0,11074184.0,
1571.0,1649.0,2002.0,1992.0,11074188.0,
1571.0,1649.0,2000.0,1992.0,11074191.0,
1571.0,1649.0,2001.0,1993.0,11074195.0,
1572.0,1650.0,2004.0,1997.0,11074198.0,
1570.0,1650.0,2007.0,1997.0,11074202.0,
1570.0,1648.0,2014.0,2000.0,11074206.0,
1570.0,1649.0,2016.0,1999.0,11074209.0,
1571.0,1648.0,2022.0,1996.0,11074213.0,
1571.0,1649.0,2028.0,1994.0,11074217.0,
1573.0,1650.0,2034.0,1994.0,11074220.0,
1571.0,1649.0,2039.0,1991.0,11074224.0,
1572.0,1649.0,2045.0,1988.0,11074228.0,
1571.0,1649.0,2050.0,1984.0,11074231.0,
1572.0,1649.0,2057.0,1978.0,11074235.0,
1571.0,1648.0,2061.0,1974.0,11074238.0,
1571.0,1647.0,2069.0,1965.0,11074242.0,
1575.0,1649.0,2074.0,1961.0,11074246.0,
1571.0,1650.0,2078.0,1955.0,11074249.0,
1571.0,1648.0,2085.0,1943.0,11074253.0,
1571.0,1648.0,2087.0,1937.0,11074257.0,
1571.0,1648.0,2091.0,1923.0,11074260.0,
1571.0,1650.0,2096.0,1914.0,11074264.0,
1572.0,1650.0,2094.0,1901.0,11074268.0,
1571.0,1649.0,2097.0,1890.0,11074271.0,
1571.0,1648.0,2099.0,1876.0,11074275.0,
1570.0,1650.0,2097.0,1863.0,11074278.0,
1570.0,1650.0,2096.0,1848.0,11074282.0,
1572.0,1649.0,2095.0,1833.0,11074286.0,
1571.0,1648.0,2091.0,1818.0,11074289.0,
1570.0,1650.0,2090.0,1799.0,11074293.0,
1572.0,1649.0,2083.0,1788.0,11074297.0,
1572.0,1648.0,2080.0,1764.0,11074300.0,
1571.0,1649.0,2073.0,1748.0,11074304.0,
1571.0,1649.0,2067.0,1735.0,11074308.0,
1572.0,1650.0,2060.0,1719.0,11074311.0,
1571.0,1649.0,2054.0,1705.0,11074315.0,
1572.0,1649.0,2048.0,1694.0,11074318.0,
1571.0,1649.0,2043.0,1681.0,11074322.0,
1572.0,1650.0,2033.0,1669.0,11074326.0,
1571.0,1650.0,2026.0,1659.0,11074329.0,
1572.0,1647.0,2017.0,1648.0,11074333.0,
1573.0,1649.0,2008.0,1638.0,11074337.0,
1572.0,1649.0,2001.0,1629.0,11074340.0,
1572.0,1648.0,1992.0,1619.0,11074344.0,
1571.0,1649.0,1987.0,1612.0,11074348.0,
1572.0,1650.0,1978.0,1606.0,11074351.0,
1572.0,1646.0,1971.0,1601.0,11074355.0,
1572.0,1649.0,1967.0,1597.0,11074358.0,
1572.0,1649.0,1961.0,1593.0,11074362.0,
1571.0,1649.0,1955.0,1590.0,11074366.0,
1572.0,1648.0,1949.0,1585.0,11074369.0,
1572.0,1648.0,1943.0,1582.0,11074373.0,
1572.0,1649.0,1939.0,1579.0,11074377.0,
1572.0,1650.0,1939.0,1576.0,11074380.0,
1572.0,1650.0,1933.0,1573.0,11074384.0,
1572.0,1650.0,1928.0,1572.0,11074388.0,
1573.0,1651.0,1930.0,1572.0,11074391.0,
1572.0,1657.0,1923.0,1571.0,11074395.0,
1571.0,1650.0,1920.0,1573.0,11074398.0,
1572.0,1651.0,1921.0,1571.0,11074402.0,
1572.0,1649.0,1916.0,1572.0,11074406.0,
1571.0,1649.0,1918.0,1571.0,11074409.0,
1572.0,1649.0,1918.0,1575.0,11074413.0,
1572.0,1649.0,1916.0,1577.0,11074417.0,
1571.0,1649.0,1917.0,1579.0,11074420.0,
1572.0,1650.0,1915.0,1579.0,11074424.0,
1570.0,1648.0,1915.0,1580.0,11074427.0,
1572.0,1650.0,1912.0,1584.0,11074431.0,
1572.0,1651.0,1914.0,1588.0,11074435.0,
1574.0,1650.0,1913.0,1586.0,11074438.0,
1572.0,1648.0,1911.0,1588.0,11074442.0,
1572.0,1649.0,1910.0,1585.0,11074446.0,
1572.0,1652.0,1910.0,1587.0,11074449.0,
1573.0,1650.0,1911.0,1584.0,11074453.0,
1572.0,1651.0,1908.0,1584.0,11074457.0,
1573.0,1651.0,1909.0,1581.0,11074460.0,
1572.0,1651.0,1907.0,1579.0,11074464.0,
1572.0,1652.0,1905.0,1579.0,11074467.0,
1572.0,1651.0,1906.0,1576.0,11074471.0,
1572.0,1651.0,1905.0,1576.0,11074475.0,
1570.0,1652.0,1904.0,1573.0,11074478.0,
1572.0,1653.0,1901.0,1575.0,11074482.0,
1572.0,1652.0,1902.0,1573.0,11074486.0,
1573.0,1652.0,1909.0,1570.0,11074489.0,
1572.0,1652.0,1896.0,1568.0,11074493.0,
1572.0,1653.0,1903.0,1572.0,11074497.0,
1572.0,1653.0,1900.0,1567.0,11074500.0,
1573.0,1654.0,1900.0,1566.0,11074504.0,
1573.0,1653.0,1902.0,1557.0,11074507.0,
1573.0,1654.0,1901.0,1559.0,11074511.0,
1573.0,1654.0,1903.0,1557.0,11074515.0,
1573.0,1653.0,1902.0,1559.0,11074518.0,
1576.0,1653.0,1901.0,1555.0,11074522.0,
1573.0,1654.0,1899.0,1557.0,11074526.0,
1573.0,1653.0,1898.0,1559.0,11074529.0,
1566.0,1653.0,1897.0,1553.0,11074533.0,
1573.0,1654.0,1897.0,1557.0,11074537.0,
1573.0,1657.0,1894.0,1549.0,11074540.0,
1572.0,1654.0,1894.0,1546.0,11074544.0,
1573.0,1655.0,1893.0,1543.0,11074547.0,
1572.0,1655.0,1889.0,1537.0,11074551.0,
1573.0,1655.0,1890.0,1534.0,11074555.0,
1572.0,1652.0,1889.0,1534.0,11074558.0,
1573.0,1655.0,1887.0,1530.0,11074562.0,
1573.0,1653.0,1887.0,1533.0,11074566.0,
1573.0,1653.0,1885.0,1535.0,11074569.0,
1573.0,1653.0,1883.0,1534.0,11074573.0,
1573.0,1652.0,1887.0,1537.0,11074577.0,
1569.0,1653.0,1882.0,1540.0,11074580.0,
1572.0,1653.0,1882.0,1540.0,11074584.0,
1573.0,1653.0,1878.0,1546.0,11074587.0,
1572.0,1652.0,1877.0,1548.0,11074591.0,
1573.0,1654.0,1877.0,1551.0,11074595.0,
1572.0,1652.0,1876.0,1554.0,11074598.0,
1572.0,1654.0,1876.0,1557.0,11074602.0,
1573.0,1653.0,1876.0,1560.0,11074606.0,
1573.0,1652.0,1877.0,1565.0,11074609.0,
1573.0,1653.0,1879.0,1565.0,11074613.0,
1573.0,1656.0,1881.0,1569.0,11074616.0,
1573.0,1653.0,1885.0,1571.0,11074620.0,
1573.0,1657.0,1887.0,1574.0,11074624.0,
1573.0,1654.0,1887.0,1579.0,11074627.0,
1573.0,1654.0,1887.0,1586.0,11074631.0,
1573.0,1655.0,1891.0,1600.0,11074635.0,
1573.0,1653.0,1896.0,1613.0,11074638.0,
1574.0,1654.0,1898.0,1631.0,11074642.0,
1573.0,1653.0,1902.0,1652.0,11074646.0,
1573.0,1654.0,1906.0,1681.0,11074649.0,
1574.0,1653.0,1911.0,1714.0,11074653.0,
1573.0,1653.0,1913.0,1757.0,11074656.0,
1573.0,1653.0,1919.0,1803.0,11074660.0,
1572.0,1653.0,1926.0,1854.0,11074664.0,
1574.0,1653.0,1935.0,1914.0,11074667.0,
1574.0,1653.0,1946.0,1976.0,11074671.0,
1574.0,1652.0,1955.0,2046.0,11074675.0,
1574.0,1653.0,1971.0,2118.0,11074678.0,
1573.0,1654.0,1985.0,2197.0,11074682.0,
1574.0,1653.0,2004.0,2281.0,11074686.0,
1574.0,1655.0,2025.0,2365.0,11074689.0,
1575.0,1654.0,2046.0,2452.0,11074693.0,
1574.0,1653.0,2074.0,2542.0,11074696.0,
1574.0,1651.0,2100.0,2627.0,11074700.0,
1575.0,1654.0,2133.0,2714.0,11074704.0,
1574.0,1653.0,2166.0,2804.0,11074707.0,
1574.0,1652.0,2205.0,2885.0,11074711.0,
1574.0,1652.0,2244.0,2967.0,11074715.0,
1576.0,1651.0,2296.0,3049.0,11074718.0,
1574.0,1654.0,2334.0,3123.0,11074722.0,
1574.0,1651.0,2382.0,3198.0,11074726.0,
1575.0,1652.0,2432.0,3267.0,11074729.0,
1575.0,1652.0,2483.0,3328.0,11074733.0,
1575.0,1652.0,2534.0,3387.0,11074736.0,
1575.0,1652.0,2584.0,3437.0,11074740.0,
1576.0,1653.0,2636.0,3483.0,11074744.0,
1576.0,1652.0,2688.0,3524.0,11074747.0,
1576.0,1652.0,2739.0,3558.0,11074751.0,
1576.0,1651.0,2786.0,3583.0,11074755.0,
1576.0,1653.0,2835.0,3611.0,11074758.0,
1575.0,1651.0,2879.0,3633.0,11074762.0,
1576.0,1652.0,2921.0,3643.0,11074766.0,
1575.0,1651.0,2960.0,3654.0,11074769.0,
1576.0,1652.0,2998.0,3656.0,11074773.0,
1576.0,1650.0,3028.0,3656.0,11074776.0,
1576.0,1650.0,3055.0,3652.0,11074780.0,
1576.0,1651.0,3080.0,3649.0,11074784.0,
1577.0,1650.0,3096.0,3642.0,11074787.0,
1577.0,1650.0,3115.0,3630.0,11074791.0,
1577.0,1648.0,3124.0,3617.0,11074795.0,
1576.0,1649.0,3132.0,3605.0,11074798.0,
1577.0,1651.0,3134.0,3585.0,11074802.0,
1577.0,1649.0,3131.0,3568.0,11074806.0,
1578.0,1650.0,3124.0,3545.0,11074809.0,
1577.0,1650.0,3117.0,3522.0,11074813.0,
1578.0,1651.0,3103.0,3495.0,11074816.0,
1578.0,1650.0,3088.0,3469.0,11074820.0,
1577.0,1648.0,3065.0,3438.0,11074824.0,
1577.0,1651.0,3042.0,3414.0,11074827.0,
1577.0,1649.0,3020.0,3384.0,11074831.0,
1577.0,1650.0,2991.0,3352.0,11074835.0,
1577.0,1646.0,2967.0,3325.0,11074838.0,
1578.0,1649.0,2939.0,3294.0,11074842.0,
1578.0,1648.0,2908.0,3262.0,11074845.0,
1577.0,1649.0,2879.0,3228.0,11074849.0,
1577.0,1650.0,2846.0,3196.0,11074853.0,
1578.0,1650.0,2816.0,3160.0,11074856.0,
1579.0,1649.0,2784.0,3125.0,11074860.0,
1577.0,1648.0,2757.0,3094.0,11074864.0,
1577.0,1647.0,2725.0,3056.0,11074867.0,
1582.0,1648.0,2698.0,3032.0,11074871.0,
1577.0,1647.0,2671.0,3004.0,11074875.0,
1577.0,1649.0,2646.0,2975.0,11074878.0,
1577.0,1648.0,2616.0,2946.0,11074882.0,
1578.0,1650.0,2594.0,2917.0,11074885.0,
1577.0,1649.0,2568.0,2888.0,11074889.0,
1578.0,1649.0,2545.0,2863.0,11074893.0,
1577.0,1646.0,2522.0,2825.0,11074896.0,
1577.0,1648.0,2501.0,2793.0,11074900.0,
1578.0,1647.0,2481.0,2756.0,11074904.0,
1577.0,1647.0,2463.0,2726.0,11074907.0,
1577.0,1648.0,2445.0,2693.0,11074911.0,
1578.0,1649.0,2425.0,2663.0,11074915.0,
1577.0,1648.0,2407.0,2630.0,11074918.0,
1577.0,1647.0,2389.0,2595.0,11074922.0,
1577.0,1647.0,2377.0,2562.0,11074925.0,
1578.0,1650.0,2353.0,2531.0,11074929.0,
1577.0,1647.0,2335.0,2497.0,11074933.0,
1577.0,1648.0,2318.0,2464.0,11074936.0,
1578.0,1648.0,2303.0,2432.0,11074940.0,
1577.0,1648.0,2283.0,2405.0,11074944.0,
1583.0,1647.0,2268.0,2379.0,11074947.0,
1578.0,1646.0,2249.0,2353.0,11074951.0,
1577.0,1649.0,2231.0,2330.0,11074955.0,
1578.0,1647.0,2215.0,2311.0,11074958.0,
1577.0,1648.0,2196.0,2292.0,11074962.0,
1578.0,1647.0,2181.0,2277.0,11074965.0,
1578.0,1647.0,2163.0,2256.0,11074969.0,
1577.0,1647.0,2147.0,2245.0,11074973.0,
1577.0,1647.0,2130.0,2241.0,11074976.0,
1577.0,1644.0,2116.0,2231.0,11074980.0,
1580.0,1646.0,2099.0,2226.0,11074984.0,
1577.0,1650.0,2084.0,2223.0,11074987.0,
1577.0,1646.0,2071.0,2219.0,11074991.0,
1577.0,1647.0,2057.0,2216.0,11074995.0,
1577.0,1647.0,2044.0,2215.0,11074998.0,
1578.0,1647.0,2033.0,2212.0,11075002.0,
1576.0,1647.0,2019.0,2215.0,11075005.0,
1577.0,1647.0,2009.0,2216.0,11075009.0,
1578.0,1647.0,1997.0,2215.0,11075013.0,
1577.0,1647.0,1994.0,2218.0,11075016.0,
1578.0,1647.0,1983.0,2219.0,11075020.0,
1578.0,1645.0,1972.0,2220.0,11075024.0,
1576.0,1646.0,1965.0,2219.0,11075027.0,
1577.0,1646.0,1957.0,2220.0,11075031.0,
1576.0,1647.0,1953.0,2222.0,11075034.0,
1577.0,1649.0,1946.0,2221.0,11075038.0,
1578.0,1646.0,1942.0,2222.0,11075042.0,
1577.0,1646.0,1940.0,2221.0,11075045.0,
1577.0,1646.0,1938.0,2215.0,11075049.0,
1577.0,1646.0,1937.0,2211.0,11075053.0,
1577.0,1646.0,1938.0,2205.0,11075056.0,
1577.0,1647.0,1938.0,2199.0,11075060.0,
1570.0,1646.0,1938.0,2190.0,11075064.0,
1577.0,1645.0,1943.0,2186.0,11075067.0,
1577.0,1645.0,1943.0,2174.0,11075071.0,
1577.0,1647.0,1945.0,2163.0,11075074.0,
1578.0,1646.0,1947.0,2149.0,11075078.0,
1576.0,1646.0,1949.0,2138.0,11075082.0,
1577.0,1648.0,1961.0,2126.0,11075085.0,
1577.0,1647.0,1959.0,2107.0,11075089.0,
1577.0,1646.0,1965.0,2090.0,11075093.0,
1577.0,1647.0,1966.0,2070.0,11075096.0,
1577.0,1645.0,1969.0,2051.0,11075100.0,
1577.0,1646.0,1972.0,2033.0,11075104.0,
1576.0,1646.0,1971.0,2018.0,11075107.0,
1577.0,1645.0,1975.0,1993.0,11075111.0,
1577.0,1645.0,1974.0,1977.0,11075114.0,
1577.0,1645.0,1973.0,1958.0,11075118.0,
1580.0,1645.0,1972.0,1942.0,11075122.0,
1577.0,1645.0,1972.0,1925.0,11075125.0,
1577.0,1646.0,1970.0,1909.0,11075129.0,
1577.0,1646.0,1966.0,1888.0,11075133.0,
1576.0,1646.0,1962.0,1874.0,11075136.0,
1577.0,1647.0,1960.0,1857.0,11075140.0,
1576.0,1645.0,1955.0,1842.0,11075144.0,
1577.0,1647.0,1951.0,1824.0,11075147.0,
1577.0,1646.0,1945.0,1809.0,11075151.0,
1577.0,1645.0,1940.0,1791.0,11075154.0,
1577.0,1647.0,1937.0,1777.0,11075158.0,
1577.0,1645.0,1930.0,1762.0,11075162.0,
1577.0,1646.0,1925.0,1750.0,11075165.0,
1577.0,1646.0,1922.0,1737.0,11075169.0,
1576.0,1643.0,1917.0,1725.0,11075173.0,
1576.0,1646.0,1913.0,1719.0,11075176.0,
1577.0,1646.0,1907.0,1708.0,11075180.0,
1573.0,1647.0,1904.0,1696.0,11075184.0,
1577.0,1650.0,1902.0,1688.0,11075187.0,
1577.0,1645.0,1897.0,1679.0,11075191.0,
1576.0,1647.0,1896.0,1670.0,11075194.0,
1576.0,1646.0,1895.0,1664.0,11075198.0,
1577.0,1646.0,1890.0,1654.0,11075202.0,
1577.0,1642.0,1886.0,1651.0,11075205.0,
1582.0,1646.0,1887.0,1643.0,11075209.0,
1577.0,1645.0,1879.0,1642.0,11075213.0,
1576.0,1645.0,1881.0,1640.0,11075216.0,
1580.0,1645.0,1880.0,1638.0,11075220.0,
1577.0,1645.0,1879.0,1631.0,11075224.0,
1577.0,1645.0,1875.0,1630.0,11075227.0,
1576.0,1646.0,1874.0,1625.0,11075231.0,
1576.0,1646.0,1875.0,1623.0,11075234.0,
1575.0,1646.0,1872.0,1621.0,11075238.0,
1576.0,1646.0,1872.0,1616.0,11075242.0,
1577.0,1645.0,1870.0,1618.0,11075245.0,
1577.0,1646.0,1870.0,1613.0,11075249.0,
1577.0,1645.0,1869.0,1608.0,11075253.0,
1575.0,1646.0,1866.0,1606.0,11075256.0,
1576.0,1645.0,1864.0,1603.0,11075260.0,
1576.0,1644.0,1866.0,1600.0,11075263.0,
1576.0,1646.0,1867.0,1595.0,11075267.0,
1577.0,1646.0,1863.0,1594.0,11075271.0,
1577.0,1645.0,1863.0,1590.0,11075274.0,
1577.0,1644.0,1864.0,1587.0,11075278.0,
1577.0,1644.0,1862.0,1586.0,11075282.0,
1577.0,1646.0,1864.0,1584.0,11075285.0,
1577.0,1645.0,1862.0,1583.0,11075289.0,
1577.0,1646.0,1863.0,1583.0,11075293.0,
1577.0,1646.0,1866.0,1583.0,11075296.0,
1577.0,1643.0,1865.0,1580.0,11075300.0,
1576.0,1645.0,1863.0,1580.0,11075303.0,
1577.0,1644.0,1861.0,1578.0,11075307.0,
1577.0,1646.0,1863.0,1575.0,11075311.0,
1578.0,1646.0,1863.0,1574.0,11075314.0,
1577.0,1644.0,1861.0,1573.0,11075318.0,
1577.0,1645.0,1860.0,1573.0,11075322.0,
1577.0,1644.0,1860.0,1577.0,11075325.0,
1576.0,1646.0,1858.0,1574.0,11075329.0,
1577.0,1645.0,1858.0,1572.0,11075333.0,
1577.0,1644.0,1859.0,1573.0,11075336.0,
1577.0,1645.0,1859.0,1572.0,11075340.0,
1576.0,1646.0,1863.0,1570.0,11075343.0,
1576.0,1645.0,1857.0,1568.0,11075347.0,
1577.0,1645.0,1856.0,1570.0,11075351.0,
1577.0,1645.0,1854.0,1561.0,11075354.0,
1577.0,1648.0,1851.0,1555.0,11075358.0,
1577.0,1641.0,1847.0,1554.0,11075362.0,
1577.0,1647.0,1847.0,1551.0,11075365.0,
1577.0,1646.0,1844.0,1548.0,11075369.0,
1576.0,1646.0,1843.0,1542.0,11075373.0,
1577.0,1645.0,1840.0,1539.0,11075376.0,
1577.0,1645.0,1841.0,1532.0,11075380.0,
1576.0,1643.0,1840.0,1531.0,11075383.0,
1576.0,1645.0,1837.0,1526.0,11075387.0,
1577.0,1646.0,1836.0,1516.0,11075391.0,
1577.0,1646.0,1837.0,1509.0,11075394.0,
1577.0,1645.0,1838.0,1500.0,11075398.0,
1576.0,1646.0,1837.0,1495.0,11075402.0,
1576.0,1646.0,1839.0,1483.0,11075405.0,
1577.0,1646.0,1838.0,1478.0,11075409.0,
1577.0,1645.0,1840.0,1466.0,11075413.0,
1576.0,1646.0,1840.0,1455.0,11075416.0,
1576.0,1645.0,1840.0,1445.0,11075420.0,
1576.0,1646.0,1836.0,1437.0,11075423.0,
1576.0,1645.0,1837.0,1425.0,11075427.0,
1577.0,1645.0,1836.0,1410.0,11075431.0,
1577.0,1645.0,1836.0,1408.0,11075434.0,
1576.0,1647.0,1834.0,1398.0,11075438.0,
1576.0,1644.0,1836.0,1389.0,11075442.0,
1577.0,1646.0,1835.0,1380.0,11075445.0,
1576.0,1646.0,1836.0,1377.0,11075449.0,
1577.0,1649.0,1832.0,1370.0,11075452.0,
1576.0,1646.0,1834.0,1366.0,11075456.0,
1577.0,1645.0,1833.0,1358.0,11075460.0,
1577.0,1646.0,1834.0,1356.0,11075463.0,
1575.0,1645.0,1832.0,1353.0,11075467.0,
1576.0,1645.0,1831.0,1353.0,11075471.0,
1577.0,1646.0,1831.0,1353.0,11075474.0,
1578.0,1646.0,1829.0,1350.0,11075478.0,
1575.0,1645.0,1829.0,1347.0,11075482.0,
1576.0,1646.0,1831.0,1349.0,11075485.0,
1572.0,1646.0,1831.0,1351.0,11075489.0,
1577.0,1646.0,1832.0,1353.0,11075492.0,
1577.0,1646.0,1831.0,1356.0,11075496.0,
1577.0,1646.0,1833.0,1356.0,11075500.0,
1577.0,1645.0,1835.0,1362.0,11075503.0,
1577.0,1645.0,1836.0,1370.0,11075507.0,
1577.0,1646.0,1835.0,1375.0,11075511.0,
1578.0,1646.0,1835.0,1377.0,11075514.0,
1576.0,1646.0,1837.0,1388.0,11075518.0,
1577.0,1648.0,1836.0,1397.0,11075522.0,
1577.0,1647.0,1834.0,1411.0,11075525.0,
1577.0,1647.0,1834.0,1429.0,11075529.0,
1577.0,1648.0,1833.0,1449.0,11075532.0,
1577.0,1647.0,1832.0,1476.0,11075536.0,
1576.0,1646.0,1830.0,1505.0,11075540.0,
1576.0,1646.0,1832.0,1545.0,11075543.0,
1577.0,1648.0,1833.0,1587.0,11075547.0,
1577.0,1648.0,1833.0,1634.0,11075551.0,
1577.0,1647.0,1836.0,1686.0,11075554.0,
1577.0,1649.0,1845.0,1750.0,11075558.0,
1577.0,1649.0,1848.0,1812.0,11075562.0,
1577.0,1647.0,1856.0,1884.0,11075565.0,
1576.0,1648.0,1869.0,1955.0,11075569.0,
1577.0,1648.0,1880.0,2035.0,11075572.0,
1577.0,1648.0,1898.0,2118.0,11075576.0,
1577.0,1648.0,1921.0,2196.0,11075580.0,
1577.0,1649.0,1947.0,2283.0,11075583.0,
1577.0,1648.0,1978.0,2368.0,11075587.0,
1578.0,1647.0,2010.0,2453.0,11075591.0,
1577.0,1647.0,2052.0,2541.0,11075594.0,
1577.0,1649.0,2096.0,2628.0,11075598.0,
1577.0,1647.0,2142.0,2709.0,11075602.0,
1577.0,1648.0,2192.0,2795.0,11075605.0,
1578.0,1649.0,2247.0,2873.0,11075609.0,
1578.0,1650.0,2302.0,2946.0,11075612.0,
1578.0,1649.0,2360.0,3019.0,11075616.0,
1579.0,1648.0,2420.0,3082.0,11075620.0,
1578.0,1650.0,2482.0,3143.0,11075623.0,
1578.0,1650.0,2543.0,3199.0,11075627.0,
1579.0,1648.0,2605.0,3250.0,11075631.0,
1578.0,1648.0,2665.0,3297.0,11075634.0,
1579.0,1648.0,2726.0,3341.0,11075638.0,
1579.0,1648.0,2786.0,3378.0,11075642.0,
1579.0,1648.0,2841.0,3414.0,11075645.0,
1578.0,1649.0,2895.0,3440.0,11075649.0,
1579.0,1648.0,2946.0,3465.0,11075652.0,
1578.0,1649.0,2993.0,3486.0,11075656.0,
1579.0,1647.0,3037.0,3501.0,11075660.0,
1579.0,1648.0,3076.0,3515.0,11075663.0,
1583.0,1648.0,3112.0,3522.0,11075667.0,
1580.0,1649.0,3142.0,3521.0,11075671.0,
1579.0,1650.0,3168.0,3530.0,11075674.0,
1580.0,1650.0,3188.0,3526.0,11075678.0,
1579.0,1648.0,3204.0,3526.0,11075681.0,
1580.0,1649.0,3218.0,3520.0,11075685.0,
1579.0,1649.0,3226.0,3507.0,11075689.0,
1582.0,1648.0,3230.0,3498.0,11075692.0,
1579.0,1648.0,3229.0,3487.0,11075696.0,
1579.0,1648.0,3222.0,3472.0,11075700.0,
1580.0,1649.0,3212.0,3459.0,11075703.0,
1579.0,1649.0,3200.0,3444.0,11075707.0,
1581.0,1647.0,3182.0,3421.0,11075711.0,
1580.0,1648.0,3164.0,3404.0,11075714.0,
1580.0,1648.0,3142.0,3382.0,11075718.0,
1581.0,1648.0,3122.0,3362.0,11075721.0,
1580.0,1648.0,3100.0,3340.0,11075725.0,
1580.0,1649.0,3073.0,3322.0,11075729.0,
1580.0,1649.0,3045.0,3298.0,11075732.0,
1581.0,1648.0,3016.0,3275.0,11075736.0,
1579.0,1648.0,2987.0,3252.0,11075740.0,
1573.0,1647.0,2956.0,3230.0,11075743.0,
1581.0,1649.0,2929.0,3209.0,11075747.0,
1581.0,1649.0,2899.0,3192.0,11075751.0,
1580.0,1648.0,2870.0,3168.0,11075754.0,
1581.0,1649.0,2840.0,3146.0,11075758.0,
1580.0,1650.0,2812.0,3122.0,11075761.0,
1580.0,1648.0,2784.0,3099.0,11075765.0,
1580.0,1648.0,2757.0,3077.0,11075769.0,
1580.0,1647.0,2736.0,3052.0,11075772.0,
1579.0,1647.0,2704.0,3031.0,11075776.0,
1580.0,1647.0,2680.0,3004.0,11075780.0,
1580.0,1648.0,2654.0,2983.0,11075783.0,
1580.0,1647.0,2632.0,2957.0,11075787.0,
1580.0,1647.0,2609.0,2929.0,11075791.0,
1580.0,1646.0,2585.0,2899.0,11075794.0,
1580.0,1648.0,2562.0,2869.0,11075798.0,
1580.0,1647.0,2541.0,2834.0,11075801.0,
1585.0,1647.0,2518.0,2799.0,11075805.0,
1579.0,1648.0,2497.0,2772.0,11075809.0,
1579.0,1646.0,2477.0,2735.0,11075812.0,
1580.0,1648.0,2456.0,2704.0,11075816.0,
1582.0,1648.0,2435.0,2665.0,11075820.0,
1580.0,1647.0,2416.0,2632.0,11075823.0,
1580.0,1647.0,2395.0,2597.0,11075827.0,
1580.0,1647.0,2374.0,2562.0,11075831.0,
1580.0,1647.0,2352.0,2528.0,11075834.0,
1579.0,1647.0,2329.0,2498.0,11075838.0,
1579.0,1646.0,2307.0,2466.0,11075841.0,
1579.0,1648.0,2287.0,2438.0,11075845.0,
1579.0,1647.0,2266.0,2412.0,11075849.0,
1580.0,1647.0,2243.0,2381.0,11075852.0,
1579.0,1645.0,2221.0,2357.0,11075856.0,
1579.0,1648.0,2198.0,2330.0,11075860.0,
1578.0,1646.0,2174.0,2304.0,11075863.0,
1579.0,1646.0,2159.0,2281.0,11075867.0,
1584.0,1647.0,2132.0,2258.0,11075871.0,
1574.0,1647.0,2111.0,2235.0,11075874.0,
1578.0,1646.0,2092.0,2220.0,11075878.0,
1578.0,1647.0,2073.0,2203.0,11075881.0,
1578.0,1646.0,2056.0,2187.0,11075885.0,
1578.0,1647.0,2040.0,2173.0,11075889.0,
1578.0,1649.0,2024.0,2158.0,11075892.0,
1577.0,1646.0,2012.0,2145.0,11075896.0,
1579.0,1646.0,2000.0,2133.0,11075900.0,
1578.0,1644.0,1987.0,2117.0,11075903.0,
1578.0,1643.0,1976.0,2104.0,11075907.0,
1578.0,1646.0,1967.0,2086.0,11075910.0,
1578.0,1646.0,1962.0,2073.0,11075914.0,
1574.0,1647.0,1952.0,2061.0,11075918.0,
1578.0,1646.0,1948.0,2047.0,11075921.0,
1577.0,1647.0,1946.0,2037.0,11075925.0,
1578.0,1647.0,1944.0,2027.0,11075929.0,
1577.0,1645.0,1940.0,2017.0,11075932.0,
1578.0,1646.0,1942.0,2010.0,11075936.0,
1577.0,1645.0,1940.0,1999.0,11075940.0,
1577.0,1646.0,1941.0,1990.0,11075943.0,
1576.0,1647.0,1940.0,1985.0,11075947.0,
1577.0,1646.0,1945.0,1976.0,11075950.0,
1572.0,1647.0,1950.0,1967.0,11075954.0,
1576.0,1647.0,1950.0,1960.0,11075958.0,
1577.0,1644.0,1953.0,1949.0,11075961.0,
1576.0,1645.0,1959.0,1943.0,11075965.0,
1577.0,1646.0,1963.0,1933.0,11075969.0,
1576.0,1647.0,1966.0,1925.0,11075972.0,
1576.0,1647.0,1972.0,1915.0,11075976.0,
1576.0,1645.0,1973.0,1906.0,11075980.0,
1576.0,1646.0,1974.0,1901.0,11075983.0,
1576.0,1647.0,1975.0,1898.0,11075987.0,
1576.0,1646.0,1975.0,1886.0,11075990.0,
1576.0,1646.0,1977.0,1881.0,11075994.0,
1575.0,1647.0,1974.0,1875.0,11075998.0,
1575.0,1646.0,1976.0,1865.0,11076001.0,
1575.0,1647.0,1970.0,1860.0,11076005.0,
1569.0,1647.0,1970.0,1850.0,11076009.0,
1574.0,1646.0,1966.0,1838.0,11076012.0,
1575.0,1646.0,1963.0,1827.0,11076016.0,
1576.0,1645.0,1955.0,1816.0,11076020.0,
1574.0,1646.0,1953.0,1801.0,11076023.0,
1575.0,1646.0,1945.0,1794.0,11076027.0,
1574.0,1646.0,1940.0,1779.0,11076030.0,
1574.0,1648.0,1932.0,1772.0,11076034.0,
1574.0,1646.0,1927.0,1763.0,11076038.0,
1574.0,1646.0,1920.0,1748.0,11076041.0,
1574.0,1647.0,1914.0,1738.0,11076045.0,
1581.0,1647.0,1907.0,1729.0,11076049.0,
1575.0,1645.0,1901.0,1721.0,11076052.0,
1575.0,1647.0,1892.0,1716.0,11076056.0,
1575.0,1645.0,1884.0,1709.0,11076060.0,
1573.0,1647.0,1876.0,1701.0,11076063.0,
1574.0,1646.0,1871.0,1697.0,11076067.0,
1573.0,1646.0,1867.0,1692.0,11076070.0,
1572.0,1647.0,1861.0,1685.0,11076074.0,
1574.0,1646.0,1856.0,1683.0,11076078.0,
1573.0,1646.0,1849.0,1674.0,11076081.0,
1573.0,1646.0,1841.0,1668.0,11076085.0,
1573.0,1646.0,1836.0,1662.0,11076089.0,
1579.0,1646.0,1836.0,1651.0,11076092.0,
1573.0,1646.0,1828.0,1643.0,11076096.0,
1574.0,1647.0,1823.0,1635.0,11076099.0,
1573.0,1646.0,1818.0,1624.0,11076103.0,
1573.0,1646.0,1813.0,1616.0,11076107.0,
1572.0,1647.0,1810.0,1606.0,11076110.0,
1573.0,1647.0,1804.0,1599.0,11076114.0,
1573.0,1645.0,1803.0,1589.0,11076118.0,
1573.0,1646.0,1799.0,1585.0,11076121.0,
1572.0,1646.0,1795.0,1576.0,11076125.0,
1573.0,1647.0,1792.0,1570.0,11076129.0,
1573.0,1647.0,1792.0,1566.0,11076132.0,
1571.0,1647.0,1783.0,1562.0,11076136.0,
1571.0,1647.0,1778.0,1554.0,11076139.0,
1570.0,1646.0,1781.0,1552.0,11076143.0,
1571.0,1647.0,1773.0,1545.0,11076147.0,
1572.0,1648.0,1769.0,1541.0,11076150.0,
1572.0,1647.0,1770.0,1533.0,11076154.0,
1571.0,1648.0,1765.0,1530.0,11076158.0,
1571.0,1648.0,1765.0,1525.0,11076161.0,
1572.0,1646.0,1763.0,1519.0,11076165.0,
1571.0,1647.0,1760.0,1512.0,11076169.0,
1571.0,1647.0,1756.0,1509.0,11076172.0,
1570.0,1648.0,1755.0,1508.0,11076176.0,
1571.0,1641.0,1752.0,1509.0,11076179.0,
1571.0,1648.0,1752.0,1508.0,11076183.0,
1570.0,1647.0,1752.0,1503.0,11076187.0,
1571.0,1646.0,1754.0,1504.0,11076190.0,
1570.0,1647.0,1752.0,1502.0,11076194.0,
1570.0,1647.0,1752.0,1501.0,11076198.0,
1570.0,1647.0,1751.0,1503.0,11076201.0,
1570.0,1648.0,1752.0,1504.0,11076205.0,
1566.0,1647.0,1754.0,1505.0,11076209.0,
1570.0,1647.0,1753.0,1505.0,11076212.0,
1570.0,1646.0,1751.0,1505.0,11076216.0,
1570.0,1647.0,1753.0,1505.0,11076219.0,
1569.0,1647.0,1754.0,1504.0,11076223.0,
1569.0,1647.0,1753.0,1504.0,11076227.0,
1569.0,1647.0,1755.0,1502.0,11076230.0,
1569.0,1647.0,1757.0,1503.0,11076234.0,
1568.0,1648.0,1759.0,1500.0,11076238.0,
1569.0,1647.0,1755.0,1500.0,11076241.0,
1568.0,1646.0,1757.0,1501.0,11076245.0,
1568.0,1646.0,1756.0,1500.0,11076249.0,
1568.0,1648.0,1758.0,1499.0,11076252.0,
1571.0,1647.0,1758.0,1502.0,11076256.0,
1568.0,1647.0,1757.0,1499.0,11076259.0,
1568.0,1648.0,1757.0,1501.0,11076263.0,
1568.0,1647.0,1758.0,1498.0,11076267.0,
1567.0,1648.0,1756.0,1500.0,11076270.0,
1569.0,1646.0,1755.0,1498.0,11076274.0,
1567.0,1648.0,1756.0,1499.0,11076278.0,
1567.0,1647.0,1758.0,1492.0,11076281.0,
1567.0,1647.0,1758.0,1489.0,11076285.0,
1567.0,1648.0,1758.0,1486.0,11076289.0,
1566.0,1647.0,1755.0,1484.0,11076292.0,
1566.0,1647.0,1756.0,1478.0,11076296.0,
1566.0,1647.0,1756.0,1474.0,11076299.0,
1566.0,1648.0,1755.0,1469.0,11076303.0,
1566.0,1646.0,1754.0,1466.0,11076307.0,
1566.0,1647.0,1756.0,1454.0,11076310.0,
1566.0,1647.0,1756.0,1452.0,11076314.0,
1565.0,1648.0,1758.0,1449.0,11076318.0,
1565.0,1647.0,1755.0,1442.0,11076321.0,
1565.0,1647.0,1754.0,1439.0,11076325.0,
1565.0,1648.0,1753.0,1435.0,11076328.0,
1565.0,1648.0,1753.0,1433.0,11076332.0,
1565.0,1647.0,1749.0,1430.0,11076336.0,
1565.0,1648.0,1746.0,1424.0,11076339.0,
1564.0,1647.0,1745.0,1423.0,11076343.0,
1564.0,1648.0,1742.0,1421.0,11076347.0,
1564.0,1647.0,1741.0,1414.0,11076350.0,
1564.0,1652.0,1739.0,1411.0,11076354.0,
1564.0,1648.0,1732.0,1408.0,11076358.0,
1563.0,1647.0,1729.0,1404.0,11076361.0,
1563.0,1648.0,1725.0,1402.0,11076365.0,
1563.0,1649.0,1729.0,1397.0,11076368.0,
1563.0,1648.0,1716.0,1386.0,11076372.0,
1563.0,1648.0,1710.0,1392.0,11076376.0,
1562.0,1648.0,1706.0,1392.0,11076379.0,
1562.0,1648.0,1701.0,1390.0,11076383.0,
1561.0,1647.0,1698.0,1389.0,11076387.0,
1561.0,1648.0,1694.0,1387.0,11076390.0,
1563.0,1649.0,1691.0,1385.0,11076394.0,
1561.0,1649.0,1687.0,1382.0,11076398.0,
1559.0,1649.0,1686.0,1378.0,11076401.0,
1561.0,1648.0,1684.0,1380.0,11076405.0,
1561.0,1648.0,1681.0,1381.0,11076408.0,
1561.0,1647.0,1676.0,1377.0,11076412.0,
1560.0,1648.0,1676.0,1381.0,11076416.0,
1560.0,1649.0,1672.0,1381.0,11076419.0,
1560.0,1651.0,1674.0,1381.0,11076423.0,
1559.0,1649.0,1672.0,1381.0,11076427.0,
1559.0,1647.0,1671.0,1382.0,11076430.0,
1559.0,1648.0,1670.0,1390.0,11076434.0,
1559.0,1649.0,1671.0,1392.0,11076438.0,
1559.0,1650.0,1669.0,1410.0,11076441.0,
1558.0,1649.0,1671.0,1426.0,11076445.0,
1558.0,1649.0,1672.0,1445.0,11076448.0,
1559.0,1649.0,1672.0,1467.0,11076452.0,
1559.0,1651.0,1673.0,1496.0,11076456.0,
1556.0,1648.0,1672.0,1526.0,11076459.0,
1557.0,1647.0,1676.0,1563.0,11076463.0,
1557.0,1648.0,1679.0,1607.0,11076467.0,
1557.0,1647.0,1685.0,1656.0,11076470.0,
1556.0,1649.0,1689.0,1710.0,11076474.0,
1556.0,1651.0,1696.0,1771.0,11076478.0,
1556.0,1650.0,1703.0,1832.0,11076481.0,
1556.0,1649.0,1713.0,1902.0,11076485.0,
1556.0,1649.0,1727.0,1973.0,11076488.0,
1556.0,1650.0,1739.0,2048.0,11076492.0,
1555.0,1651.0,1757.0,2122.0,11076496.0,
1556.0,1651.0,1777.0,2202.0,11076499.0,
1555.0,1650.0,1799.0,2279.0,11076503.0,
1556.0,1650.0,1829.0,2359.0,11076507.0,
1555.0,1651.0,1862.0,2435.0,11076510.0,
1555.0,1650.0,1902.0,2510.0,11076514.0,
1554.0,1650.0,1937.0,2584.0,11076518.0,
1554.0,1651.0,1980.0,2657.0,11076521.0,
1554.0,1651.0,2027.0,2723.0,11076525.0,
1554.0,1650.0,2074.0,2791.0,11076528.0,
1554.0,1650.0,2124.0,2852.0,11076532.0,
1554.0,1651.0,2178.0,2909.0,11076536.0,
1555.0,1649.0,2234.0,2959.0,11076539.0,
1553.0,1650.0,2290.0,3008.0,11076543.0,
1553.0,1651.0,2347.0,3049.0,11076547.0,
1553.0,1652.0,2402.0,3084.0,11076550.0,
1554.0,1651.0,2455.0,3115.0,11076554.0,
1553.0,1651.0,2509.0,3145.0,11076557.0,
1553.0,1650.0,2563.0,3166.0,11076561.0,
1552.0,1650.0,2611.0,3182.0,11076565.0,
1553.0,1651.0,2660.0,3201.0,11076568.0,
1552.0,1652.0,2704.0,3208.0,11076572.0,
1554.0,1650.0,2746.0,3221.0,11076576.0,
1552.0,1651.0,2782.0,3222.0,11076579.0,
1552.0,1650.0,2818.0,3221.0,11076583.0,
1551.0,1651.0,2847.0,3226.0,11076587.0,
1552.0,1651.0,2873.0,3219.0,11076590.0,
1546.0,1652.0,2894.0,3209.0,11076594.0,
1551.0,1651.0,2911.0,3204.0,11076597.0,
1551.0,1650.0,2923.0,3193.0,11076601.0,
1550.0,1650.0,2931.0,3183.0,11076605.0,
1550.0,1651.0,2938.0,3170.0,11076608.0,
1550.0,1652.0,2938.0,3150.0,11076612.0,
1550.0,1652.0,2933.0,3131.0,11076616.0,
1550.0,1652.0,2928.0,3113.0,11076619.0,
1550.0,1649.0,2917.0,3089.0,11076623.0,
1549.0,1649.0,2902.0,3068.0,11076627.0,
1548.0,1650.0,2887.0,3044.0,11076630.0,
1549.0,1651.0,2869.0,3021.0,11076634.0,
1549.0,1652.0,2851.0,3002.0,11076637.0,
1549.0,1651.0,2828.0,2979.0,11076641.0,
1548.0,1651.0,2804.0,2959.0,11076645.0,
1548.0,1652.0,2779.0,2937.0,11076648.0,
1548.0,1651.0,2753.0,2919.0,11076652.0,
1548.0,1651.0,2725.0,2899.0,11076656.0,
1547.0,1651.0,2697.0,2878.0,11076659.0,
1547.0,1651.0,2670.0,2859.0,11076663.0,
1547.0,1652.0,2643.0,2844.0,11076667.0,
1546.0,1651.0,2612.0,2821.0,11076670.0,
1547.0,1651.0,2586.0,2803.0,11076674.0,
1546.0,1652.0,2557.0,2785.0,11076677.0,
1546.0,1652.0,2530.0,2763.0,11076681.0,
1546.0,1659.0,2504.0,2745.0,11076685.0,
1545.0,1651.0,2478.0,2724.0,11076688.0,
1544.0,1650.0,2450.0,2705.0,11076692.0,
1543.0,1652.0,2427.0,2682.0,11076696.0,
1545.0,1652.0,2402.0,2660.0,11076699.0,
1544.0,1651.0,2378.0,2635.0,11076703.0,
1547.0,1652.0,2351.0,2612.0,11076707.0,
1544.0,1652.0,2330.0,2584.0,11076710.0,
1545.0,1652.0,2307.0,2564.0,11076714.0,
1544.0,1653.0,2285.0,2535.0,11076717.0,
1543.0,1652.0,2263.0,2505.0,11076721.0,
1543.0,1652.0,2241.0,2474.0,11076725.0,
1550.0,1649.0,2219.0,2446.0,11076728.0,
1543.0,1652.0,2202.0,2414.0,11076732.0,
1542.0,1654.0,2179.0,2385.0,11076736.0,
1542.0,1651.0,2158.0,2353.0,11076739.0,
1542.0,1653.0,2139.0,2328.0,11076743.0,
1543.0,1653.0,2119.0,2300.0,11076747.0,
1541.0,1653.0,2100.0,2271.0,11076750.0,
1542.0,1654.0,2081.0,2246.0,11076754.0,
1541.0,1653.0,2061.0,2220.0,11076757.0,
1541.0,1653.0,2042.0,2195.0,11076761.0,
1541.0,1653.0,2023.0,2175.0,11076765.0,
1540.0,1653.0,2003.0,2151.0,11076768.0,
1540.0,1653.0,1982.0,2130.0,11076772.0,
1541.0,1653.0,1964.0,2112.0,11076776.0,
1541.0,1652.0,1946.0,2093.0,11076779.0,
1541.0,1653.0,1927.0,2077.0,11076783.0,
1539.0,1654.0,1908.0,2065.0,11076786.0,
1539.0,1652.0,1890.0,2050.0,11076790.0,
1539.0,1652.0,1872.0,2040.0,11076794.0,
1539.0,1652.0,1856.0,2031.0,11076797.0,
1538.0,1653.0,1842.0,2019.0,11076801.0,
1536.0,1652.0,1828.0,2012.0,11076805.0,
1537.0,1651.0,1817.0,2006.0,11076808.0,
1538.0,1652.0,1807.0,1999.0,11076812.0,
1537.0,1652.0,1799.0,1990.0,11076816.0,
1537.0,1652.0,1793.0,1992.0,11076819.0,
1538.0,1653.0,1791.0,1986.0,11076823.0,
1537.0,1653.0,1786.0,1983.0,11076826.0,
1536.0,1651.0,1785.0,1975.0,11076830.0,
1536.0,1651.0,1787.0,1972.0,11076834.0,
1535.0,1652.0,1790.0,1966.0,11076837.0,
1535.0,1652.0,1793.0,1961.0,11076841.0,
1535.0,1652.0,1797.0,1956.0,11076845.0,
1535.0,1651.0,1801.0,1951.0,11076848.0,
1535.0,1651.0,1810.0,1944.0,11076852.0,
1535.0,1651.0,1815.0,1936.0,11076856.0,
1533.0,1652.0,1829.0,1930.0,11076859.0,
1534.0,1651.0,1828.0,1923.0,11076863.0,
1535.0,1651.0,1838.0,1914.0,11076866.0,
1533.0,1651.0,1846.0,1903.0,11076870.0,
1534.0,1650.0,1854.0,1897.0,11076874.0,
1534.0,1652.0,1860.0,1888.0,11076877.0,
1532.0,1650.0,1870.0,1874.0,11076881.0,
1534.0,1652.0,1880.0,1868.0,11076885.0,
1531.0,1652.0,1885.0,1856.0,11076888.0,
1533.0,1651.0,1893.0,1845.0,11076892.0,
1538.0,1652.0,1900.0,1837.0,11076896.0,
1532.0,1650.0,1908.0,1819.0,11076899.0,
1531.0,1649.0,1910.0,1810.0,11076903.0,
1536.0,1651.0,1914.0,1799.0,11076906.0,
1531.0,1651.0,1912.0,1785.0,11076910.0,
1531.0,1652.0,1920.0,1775.0,11076914.0,
1533.0,1651.0,1921.0,1760.0,11076917.0,
1531.0,1650.0,1924.0,1751.0,11076921.0,
1530.0,1651.0,1921.0,1738.0,11076925.0,
1530.0,1653.0,1924.0,1729.0,11076928.0,
1530.0,1652.0,1922.0,1717.0,11076932.0,
1529.0,1651.0,1922.0,1709.0,11076936.0,
1529.0,1651.0,1918.0,1696.0,11076939.0,
1530.0,1650.0,1918.0,1689.0,11076943.0,
1529.0,1650.0,1916.0,1677.0,11076946.0,
1530.0,1650.0,1912.0,1667.0,11076950.0,
1531.0,1651.0,1906.0,1654.0,11076954.0,
1529.0,1651.0,1903.0,1644.0,11076957.0,
1527.0,1651.0,1898.0,1631.0,11076961.0,
1527.0,1650.0,1894.0,1624.0,11076965.0,
1528.0,1649.0,1889.0,1613.0,11076968.0,
1527.0,1648.0,1886.0,1604.0,11076972.0,
1527.0,1652.0,1881.0,1593.0,11076975.0,
1527.0,1650.0,1877.0,1587.0,11076979.0,
1526.0,1650.0,1871.0,1578.0,11076983.0,
1527.0,1650.0,1867.0,1571.0,11076986.0,
1526.0,1649.0,1864.0,1564.0,11076990.0,
1526.0,1650.0,1855.0,1560.0,11076994.0,
1525.0,1650.0,1850.0,1553.0,11076997.0,
1525.0,1650.0,1841.0,1548.0,11077001.0,
1525.0,1649.0,1834.0,1544.0,11077005.0,
1524.0,1649.0,1826.0,1539.0,11077008.0,
1525.0,1649.0,1819.0,1536.0,11077012.0,
1525.0,1649.0,1813.0,1532.0,11077015.0,
1525.0,1650.0,1805.0,1528.0,11077019.0,
1525.0,1650.0,1796.0,1526.0,11077023.0,
1524.0,1649.0,1787.0,1526.0,11077026.0,
1523.0,1649.0,1780.0,1518.0,11077030.0,
1520.0,1649.0,1774.0,1518.0,11077034.0,
1523.0,1653.0,1766.0,1513.0,11077037.0,
1523.0,1650.0,1758.0,1509.0,11077041.0,
1523.0,1649.0,1752.0,1506.0,11077045.0,
1523.0,1647.0,1745.0,1501.0,11077048.0,
1522.0,1648.0,1742.0,1495.0,11077052.0,
1522.0,1649.0,1737.0,1492.0,11077055.0,
1522.0,1648.0,1731.0,1486.0,11077059.0,
1522.0,1651.0,1726.0,1486.0,11077063.0,
1522.0,1651.0,1720.0,1483.0,11077066.0,
1515.0,1649.0,1716.0,1481.0,11077070.0,
1521.0,1648.0,1713.0,1479.0,11077074.0,
1521.0,1649.0,1709.0,1480.0,11077077.0,
1521.0,1650.0,1705.0,1478.0,11077081.0,
1520.0,1649.0,1701.0,1479.0,11077085.0,
1521.0,1648.0,1700.0,1478.0,11077088.0,
1520.0,1648.0,1695.0,1478.0,11077092.0,
1520.0,1648.0,1697.0,1481.0,11077095.0,
1520.0,1649.0,1695.0,1481.0,11077099.0,
1520.0,1648.0,1689.0,1481.0,11077103.0,
1519.0,1649.0,1686.0,1486.0,11077106.0,
1519.0,1647.0,1686.0,1486.0,11077110.0,
1518.0,1649.0,1683.0,1492.0,11077114.0,
1518.0,1648.0,1681.0,1494.0,11077117.0,
1518.0,1649.0,1682.0,1499.0,11077121.0,
1521.0,1648.0,1678.0,1503.0,11077125.0,
1518.0,1649.0,1676.0,1506.0,11077128.0,
1517.0,1647.0,1676.0,1509.0,11077132.0,
1517.0,1647.0,1674.0,1516.0,11077135.0,
1518.0,1648.0,1668.0,1518.0,11077139.0,
1516.0,1649.0,1673.0,1522.0,11077143.0,
1516.0,1648.0,1671.0,1527.0,11077146.0,
1517.0,1649.0,1672.0,1529.0,11077150.0,
1516.0,1648.0,1672.0,1527.0,11077154.0,
1516.0,1648.0,1672.0,1527.0,11077157.0,
1516.0,1647.0,1672.0,1528.0,11077161.0,
1515.0,1647.0,1673.0,1531.0,11077165.0,
1514.0,1646.0,1672.0,1531.0,11077168.0,
1519.0,1648.0,1673.0,1529.0,11077172.0,
1514.0,1648.0,1676.0,1530.0,11077175.0,
1515.0,1645.0,1675.0,1530.0,11077179.0,
1514.0,1648.0,1675.0,1526.0,11077183.0,
1516.0,1647.0,1676.0,1526.0,11077186.0,
1513.0,1646.0,1678.0,1522.0,11077190.0,
1513.0,1647.0,1681.0,1519.0,11077194.0,
1513.0,1647.0,1683.0,1514.0,11077197.0,
1512.0,1647.0,1682.0,1511.0,11077201.0,
1510.0,1647.0,1685.0,1504.0,11077204.0,
1514.0,1646.0,1684.0,1500.0,11077208.0,
1513.0,1646.0,1687.0,1494.0,11077212.0,
1512.0,1647.0,1687.0,1491.0,11077215.0,
1513.0,1645.0,1691.0,1487.0,11077219.0,
1512.0,1647.0,1692.0,1483.0,11077223.0,
1511.0,1647.0,1694.0,1479.0,11077226.0,
1512.0,1647.0,1695.0,1476.0,11077230.0,
1511.0,1648.0,1698.0,1474.0,11077234.0,
1511.0,1647.0,1703.0,1478.0,11077237.0,
1511.0,1646.0,1701.0,1475.0,11077241.0,
1511.0,1646.0,1701.0,1478.0,11077244.0,
1511.0,1646.0,1701.0,1481.0,11077248.0,
1510.0,1647.0,1702.0,1479.0,11077252.0,
1510.0,1646.0,1705.0,1479.0,11077255.0,
1510.0,1646.0,1708.0,1475.0,11077259.0,
1510.0,1646.0,1708.0,1468.0,11077263.0,
1509.0,1645.0,1708.0,1472.0,11077266.0,
1509.0,1646.0,1708.0,1468.0,11077270.0,
1510.0,1644.0,1708.0,1470.0,11077274.0,
1509.0,1646.0,1708.0,1469.0,11077277.0,
1509.0,1646.0,1709.0,1467.0,11077281.0,
1508.0,1646.0,1709.0,1468.0,11077284.0,
1508.0,1645.0,1708.0,1466.0,11077288.0,
1509.0,1645.0,1708.0,1467.0,11077292.0,
1509.0,1644.0,1710.0,1467.0,11077295.0,
1508.0,1646.0,1709.0,1465.0,11077299.0,
1508.0,1645.0,1710.0,1461.0,11077303.0,
1507.0,1646.0,1710.0,1457.0,11077306.0,
1508.0,1646.0,1708.0,1455.0,11077310.0,
1507.0,1646.0,1706.0,1453.0,11077314.0,
1507.0,1646.0,1703.0,1460.0,11077317.0,
1502.0,1645.0,1702.0,1452.0,11077321.0,
1508.0,1646.0,1700.0,1452.0,11077324.0,
1507.0,1644.0,1699.0,1453.0,11077328.0,
1509.0,1645.0,1696.0,1454.0,11077332.0,
1506.0,1645.0,1695.0,1456.0,11077335.0,
1506.0,1646.0,1694.0,1456.0,11077339.0,
1507.0,1645.0,1693.0,1458.0,11077343.0,
1506.0,1646.0,1692.0,1467.0,11077346.0,
1505.0,1647.0,1689.0,1472.0,11077350.0,
1504.0,1646.0,1688.0,1483.0,11077354.0,
1505.0,1646.0,1688.0,1498.0,11077357.0,
1505.0,1646.0,1687.0,1517.0,11077361.0,
1505.0,1647.0,1688.0,1537.0,11077364.0,
1505.0,1647.0,1688.0,1566.0,11077368.0,
1504.0,1651.0,1688.0,1595.0,11077372.0,
1510.0,1647.0,1688.0,1638.0,11077375.0,
1504.0,1648.0,1691.0,1682.0,11077379.0,
1505.0,1647.0,1689.0,1733.0,11077383.0,
1503.0,1645.0,1690.0,1786.0,11077386.0,
1503.0,1647.0,1694.0,1845.0,11077390.0,
1503.0,1646.0,1697.0,1905.0,11077393.0,
1504.0,1648.0,1700.0,1973.0,11077397.0,
1503.0,1647.0,1708.0,2041.0,11077401.0,
1504.0,1646.0,1715.0,2110.0,11077404.0,
1504.0,1647.0,1721.0,2182.0,11077408.0,
1503.0,1652.0,1733.0,2258.0,11077412.0,
1504.0,1647.0,1747.0,2333.0,11077415.0,
1503.0,1647.0,1757.0,2409.0,11077419.0,
1502.0,1648.0,1774.0,2481.0,11077423.0,
1502.0,1647.0,1791.0,2555.0,11077426.0,
1502.0,1647.0,1807.0,2624.0,11077430.0,
1502.0,1646.0,1836.0,2692.0,11077433.0,
1502.0,1647.0,1860.0,2757.0,11077437.0,
1502.0,1646.0,1887.0,2818.0,11077441.0,
1502.0,1648.0,1922.0,2877.0,11077444.0,
1502.0,1647.0,1953.0,2930.0,11077448.0,
1501.0,1648.0,1989.0,2982.0,11077452.0,
1502.0,1648.0,2028.0,3027.0,11077455.0,
1501.0,1651.0,2065.0,3069.0,11077459.0,
1501.0,1648.0,2105.0,3103.0,11077463.0,
1501.0,1646.0,2146.0,3136.0,11077466.0,
1500.0,1647.0,2187.0,3162.0,11077470.0,
1501.0,1647.0,2228.0,3186.0,11077473.0,
1500.0,1645.0,2271.0,3203.0,11077477.0,
1500.0,1647.0,2310.0,3216.0,11077481.0,
1502.0,1648.0,2349.0,3227.0,11077484.0,
1500.0,1647.0,2385.0,3236.0,11077488.0,
1500.0,1646.0,2419.0,3237.0,11077492.0,
1499.0,1647.0,2454.0,3240.0,11077495.0,
1500.0,1647.0,2485.0,3235.0,11077499.0,
1500.0,1647.0,2516.0,3229.0,11077503.0,
1499.0,1646.0,2535.0,3220.0,11077506.0,
1500.0,1646.0,2563.0,3211.0,11077510.0,
1499.0,1646.0,2584.0,3196.0,11077513.0,
1499.0,1646.0,2599.0,3183.0,11077517.0,
1499.0,1646.0,2613.0,3163.0,11077521.0,
1499.0,1646.0,2625.0,3148.0,11077524.0,
1499.0,1646.0,2632.0,3126.0,11077528.0,
1498.0,1646.0,2639.0,3107.0,11077532.0,
1498.0,1647.0,2641.0,3091.0,11077535.0,
1498.0,1647.0,2644.0,3073.0,11077539.0,
1497.0,1646.0,2644.0,3053.0,11077543.0,
1498.0,1646.0,2640.0,3030.0,11077546.0,
1497.0,1645.0,2636.0,3006.0,11077550.0,
1498.0,1646.0,2627.0,2979.0,11077553.0,
1497.0,1647.0,2620.0,2956.0,11077557.0,
1497.0,1650.0,2611.0,2934.0,11077561.0,
1496.0,1646.0,2594.0,2911.0,11077564.0,
1496.0,1647.0,2577.0,2889.0,11077568.0,
1496.0,1647.0,2566.0,2865.0,11077572.0,
1496.0,1646.0,2553.0,2842.0,11077575.0,
1496.0,1645.0,2535.0,2820.0,11077579.0,
1498.0,1645.0,2516.0,2799.0,11077582.0,
1495.0,1647.0,2498.0,2776.0,11077586.0,
1495.0,1648.0,2481.0,2752.0,11077590.0,
1496.0,1645.0,2457.0,2733.0,11077593.0,
1495.0,1645.0,2439.0,2710.0,11077597.0,
1495.0,1645.0,2418.0,2684.0,11077601.0,
1495.0,1646.0,2399.0,2659.0,11077604.0,
1494.0,1646.0,2378.0,2638.0,11077608.0,
1494.0,1646.0,2357.0,2610.0,11077612.0,
1494.0,1646.0,2337.0,2582.0,11077615.0,
1493.0,1646.0,2317.0,2553.0,11077619.0,
1494.0,1646.0,2295.0,2527.0,11077622.0,
1494.0,1646.0,2279.0,2502.0,11077626.0,
1493.0,1646.0,2259.0,2473.0,11077630.0,
1493.0,1647.0,2241.0,2445.0,11077633.0,
1494.0,1646.0,2222.0,2421.0,11077637.0,
1493.0,1642.0,2203.0,2397.0,11077641.0,
1493.0,1647.0,2186.0,2371.0,11077644.0,
1492.0,1646.0,2168.0,2348.0,11077648.0,
1492.0,1645.0,2147.0,2326.0,11077652.0,
1492.0,1647.0,2132.0,2308.0,11077655.0,
1492.0,1647.0,2112.0,2291.0,11077659.0,
1492.0,1646.0,2097.0,2271.0,11077662.0,
1492.0,1647.0,2081.0,2257.0,11077666.0,
1490.0,1647.0,2066.0,2239.0,11077670.0,
1491.0,1646.0,2048.0,2225.0,11077673.0,
1491.0,1646.0,2035.0,2211.0,11077677.0,
1491.0,1648.0,2020.0,2201.0,11077681.0,
1490.0,1647.0,2006.0,2190.0,11077684.0,
1490.0,1647.0,1996.0,2177.0,11077688.0,
1490.0,1647.0,1983.0,2166.0,11077692.0,
1490.0,1647.0,1973.0,2158.0,11077695.0,
1491.0,1646.0,1960.0,2149.0,11077699.0,
1490.0,1648.0,1950.0,2149.0,11077702.0,
1489.0,1648.0,1942.0,2137.0,11077706.0,
1490.0,1648.0,1934.0,2132.0,11077710.0,
1489.0,1647.0,1927.0,2126.0,11077713.0,
1489.0,1647.0,1919.0,2125.0,11077717.0,
1489.0,1648.0,1910.0,2116.0,11077721.0,
1488.0,1648.0,1903.0,2114.0,11077724.0,
1488.0,1648.0,1897.0,2109.0,11077728.0,
1488.0,1647.0,1893.0,2107.0,11077732.0,
1488.0,1648.0,1882.0,2101.0,11077735.0,
1488.0,1649.0,1880.0,2098.0,11077739.0,
1487.0,1647.0,1876.0,2091.0,11077742.0,
1487.0,1648.0,1875.0,2094.0,11077746.0,
1487.0,1647.0,1871.0,2087.0,11077750.0,
1486.0,1647.0,1870.0,2082.0,11077753.0,
1487.0,1648.0,1871.0,2077.0,11077757.0,
1487.0,1648.0,1871.0,2073.0,11077761.0,
1486.0,1649.0,1870.0,2067.0,11077764.0,
1486.0,1649.0,1869.0,2064.0,11077768.0,
1485.0,1648.0,1871.0,2056.0,11077771.0,
1486.0,1649.0,1875.0,2053.0,11077775.0,
1485.0,1648.0,1877.0,2047.0,11077779.0,
1485.0,1650.0,1881.0,2038.0,11077782.0,
1485.0,1648.0,1884.0,2034.0,11077786.0,
1486.0,1648.0,1885.0,2026.0,11077790.0,
1485.0,1647.0,1890.0,2021.0,11077793.0,
1485.0,1647.0,1895.0,2013.0,11077797.0,
1485.0,1648.0,1900.0,2008.0,11077801.0,
1484.0,1648.0,1901.0,2000.0,11077804.0,
1483.0,1648.0,1906.0,1992.0,11077808.0,
1484.0,1647.0,1909.0,1985.0,11077811.0,
1483.0,1648.0,1915.0,1987.0,11077815.0,
1483.0,1647.0,1917.0,1966.0,11077819.0,
1483.0,1646.0,1921.0,1965.0,11077822.0,
1482.0,1649.0,1922.0,1954.0,11077826.0,
1483.0,1648.0,1926.0,1948.0,11077830.0,
1482.0,1647.0,1926.0,1939.0,11077833.0,
1482.0,1648.0,1928.0,1931.0,11077837.0,
1483.0,1646.0,1928.0,1922.0,11077841.0,
1481.0,1648.0,1930.0,1916.0,11077844.0,
1482.0,1646.0,1929.0,1908.0,11077848.0,
1482.0,1647.0,1927.0,1901.0,11077851.0,
1481.0,1648.0,1927.0,1897.0,11077855.0,
1481.0,1648.0,1926.0,1888.0,11077859.0,
1481.0,1647.0,1928.0,1886.0,11077862.0,
1481.0,1648.0,1925.0,1879.0,11077866.0,
1481.0,1647.0,1922.0,1872.0,11077870.0,
1480.0,1647.0,1922.0,1863.0,11077873.0,
1480.0,1647.0,1920.0,1857.0,11077877.0,
1480.0,1647.0,1917.0,1849.0,11077881.0,
1481.0,1649.0,1912.0,1842.0,11077884.0,
1480.0,1647.0,1910.0,1835.0,11077888.0,
1479.0,1647.0,1911.0,1829.0,11077891.0,
1484.0,1646.0,1903.0,1821.0,11077895.0,
1479.0,1647.0,1901.0,1812.0,11077899.0,
1479.0,1648.0,1896.0,1804.0,11077902.0,
1480.0,1646.0,1891.0,1799.0,11077906.0,
1479.0,1647.0,1887.0,1789.0,11077910.0,
1479.0,1648.0,1884.0,1784.0,11077913.0,
1479.0,1647.0,1880.0,1776.0,11077917.0,
1479.0,1647.0,1875.0,1766.0,11077921.0,
1479.0,1646.0,1870.0,1760.0,11077924.0,
1479.0,1646.0,1864.0,1752.0,11077928.0,
1474.0,1648.0,1860.0,1748.0,11077931.0,
1479.0,1647.0,1857.0,1741.0,11077935.0,
1479.0,1647.0,1852.0,1735.0,11077939.0,
1477.0,1648.0,1851.0,1726.0,11077942.0,
1478.0,1647.0,1846.0,1724.0,11077946.0,
1477.0,1647.0,1846.0,1716.0,11077950.0,
1477.0,1647.0,1846.0,1715.0,11077953.0,
1478.0,1647.0,1844.0,1711.0,11077957.0,
1479.0,1648.0,1844.0,1707.0,11077961.0,
1478.0,1647.0,1843.0,1702.0,11077964.0,
1480.0,1647.0,1842.0,1699.0,11077968.0,
1478.0,1646.0,1840.0,1696.0,11077971.0,
1478.0,1648.0,1838.0,1696.0,11077975.0,
1479.0,1647.0,1835.0,1692.0,11077979.0,
1478.0,1646.0,1832.0,1690.0,11077982.0,
1476.0,1647.0,1831.0,1693.0,11077986.0,
1477.0,1650.0,1830.0,1688.0,11077990.0,
1478.0,1644.0,1828.0,1683.0,11077993.0,
1478.0,1645.0,1825.0,1682.0,11077997.0,
1477.0,1646.0,1824.0,1677.0,11078000.0,
1476.0,1646.0,1823.0,1675.0,11078004.0,
1477.0,1645.0,1826.0,1675.0,11078008.0,
1478.0,1644.0,1823.0,1668.0,11078011.0,
1478.0,1644.0,1821.0,1671.0,11078015.0,
1477.0,1645.0,1820.0,1667.0,11078019.0,
1477.0,1647.0,1817.0,1666.0,11078022.0,
1476.0,1646.0,1816.0,1667.0,11078026.0,
1475.0,1645.0,1812.0,1666.0,11078030.0,
1476.0,1646.0,1812.0,1660.0,11078033.0,
1477.0,1646.0,1812.0,1671.0,11078037.0,
1478.0,1646.0,1811.0,1668.0,11078040.0,
1476.0,1646.0,1812.0,1669.0,11078044.0,
1473.0,1645.0,1813.0,1672.0,11078048.0,
1476.0,1645.0,1817.0,1669.0,11078051.0,
1476.0,1646.0,1816.0,1670.0,11078055.0,
1476.0,1642.0,1816.0,1672.0,11078059.0,
1476.0,1646.0,1821.0,1671.0,11078062.0,
1475.0,1644.0,1820.0,1671.0,11078066.0,
1476.0,1646.0,1821.0,1671.0,11078070.0,
1475.0,1645.0,1820.0,1672.0,11078073.0,
1475.0,1646.0,1823.0,1678.0,11078077.0,
1475.0,1644.0,1825.0,1674.0,11078080.0,
1476.0,1646.0,1828.0,1673.0,11078084.0,
1476.0,1646.0,1833.0,1671.0,11078088.0,
1476.0,1646.0,1834.0,1669.0,11078091.0,
1476.0,1645.0,1840.0,1670.0,11078095.0,
1475.0,1646.0,1839.0,1667.0,11078099.0,
1480.0,1646.0,1843.0,1664.0,11078102.0,
1476.0,1647.0,1847.0,1663.0,11078106.0,
1472.0,1646.0,1847.0,1663.0,11078110.0,
1475.0,1646.0,1850.0,1663.0,11078113.0,
1478.0,1646.0,1855.0,1662.0,11078117.0,
1476.0,1647.0,1857.0,1652.0,11078120.0,
1476.0,1645.0,1858.0,1658.0,11078124.0,
1475.0,1647.0,1859.0,1653.0,11078128.0,
1476.0,1645.0,1859.0,1646.0,11078131.0,
1474.0,1647.0,1860.0,1650.0,11078135.0,
1475.0,1646.0,1859.0,1643.0,11078139.0,
1475.0,1643.0,1858.0,1640.0,11078142.0,
1475.0,1646.0,1856.0,1636.0,11078146.0,
1475.0,1647.0,1855.0,1633.0,11078150.0,
1474.0,1648.0,1857.0,1628.0,11078153.0,
1475.0,1647.0,1853.0,1625.0,11078157.0,
1475.0,1647.0,1850.0,1616.0,11078160.0,
1474.0,1647.0,1848.0,1613.0,11078164.0,
1475.0,1647.0,1844.0,1606.0,11078168.0,
1474.0,1648.0,1844.0,1602.0,11078171.0,
1474.0,1648.0,1843.0,1596.0,11078175.0,
1474.0,1649.0,1841.0,1591.0,11078179.0,
1475.0,1649.0,1838.0,1587.0,11078182.0,
1474.0,1648.0,1835.0,1584.0,11078186.0,
1473.0,1648.0,1833.0,1575.0,11078189.0,
1473.0,1647.0,1831.0,1574.0,11078193.0,
1474.0,1649.0,1830.0,1569.0,11078197.0,
1474.0,1648.0,1828.0,1562.0,11078200.0,
1474.0,1648.0,1828.0,1560.0,11078204.0,
1473.0,1648.0,1827.0,1553.0,11078208.0,
1473.0,1647.0,1832.0,1550.0,11078211.0,
1477.0,1647.0,1824.0,1546.0,11078215.0,
1473.0,1648.0,1823.0,1539.0,11078219.0,
1474.0,1647.0,1823.0,1537.0,11078222.0,
1474.0,1649.0,1825.0,1536.0,11078226.0,
1473.0,1647.0,1825.0,1534.0,11078229.0,
1473.0,1648.0,1823.0,1539.0,11078233.0,
1474.0,1649.0,1822.0,1547.0,11078237.0,
1472.0,1649.0,1822.0,1550.0,11078240.0,
1472.0,1646.0,1823.0,1562.0,11078244.0,
1473.0,1647.0,1824.0,1574.0,11078248.0,
1473.0,1649.0,1820.0,1589.0,11078251.0,
1472.0,1647.0,1820.0,1607.0,11078255.0,
1473.0,1649.0,1819.0,1631.0,11078259.0,
1473.0,1651.0,1823.0,1666.0,11078262.0,
1476.0,1650.0,1823.0,1692.0,11078266.0,
1473.0,1648.0,1822.0,1729.0,11078269.0,
1473.0,1649.0,1824.0,1770.0,11078273.0,
1472.0,1651.0,1827.0,1821.0,11078277.0,
1473.0,1648.0,1829.0,1873.0,11078280.0,
1473.0,1649.0,1835.0,1932.0,11078284.0,
1473.0,1652.0,1839.0,1990.0,11078288.0,
1472.0,1649.0,1840.0,2054.0,11078291.0,
1473.0,1651.0,1854.0,2120.0,11078295.0,
1473.0,1655.0,1860.0,2188.0,11078299.0,
1473.0,1652.0,1870.0,2258.0,11078302.0,
1473.0,1650.0,1882.0,2330.0,11078306.0,
1472.0,1654.0,1892.0,2404.0,11078309.0,
1472.0,1651.0,1906.0,2477.0,11078313.0,
1473.0,1651.0,1923.0,2545.0,11078317.0,
1473.0,1651.0,1941.0,2609.0,11078320.0,
1473.0,1650.0,1961.0,2678.0,11078324.0,
1472.0,1650.0,1985.0,2736.0,11078328.0,
1472.0,1652.0,2010.0,2793.0,11078331.0,
1474.0,1651.0,2039.0,2847.0,11078335.0,
1474.0,1650.0,2070.0,2896.0,11078339.0,
1473.0,1652.0,2106.0,2944.0,11078342.0,
1473.0,1651.0,2139.0,2991.0,11078346.0,
1473.0,1651.0,2177.0,3025.0,11078349.0,
1473.0,1651.0,2216.0,3059.0,11078353.0,
1471.0,1651.0,2254.0,3090.0,11078357.0,
1473.0,1651.0,2293.0,3115.0,11078360.0,
1473.0,1652.0,2332.0,3138.0,11078364.0,
1473.0,1651.0,2371.0,3155.0,11078368.0,
1473.0,1651.0,2409.0,3166.0,11078371.0,
1474.0,1651.0,2447.0,3176.0,11078375.0,
1474.0,1652.0,2484.0,3187.0,11078379.0,
1472.0,1651.0,2519.0,3183.0,11078382.0,
1473.0,1650.0,2556.0,3184.0,11078386.0,
1473.0,1651.0,2585.0,3181.0,11078389.0,
1474.0,1650.0,2615.0,3172.0,11078393.0,
1473.0,1651.0,2642.0,3162.0,11078397.0,
1473.0,1653.0,2667.0,3148.0,11078400.0,
1474.0,1649.0,2686.0,3136.0,11078404.0,
1473.0,1651.0,2707.0,3123.0,11078408.0,
1473.0,1651.0,2722.0,3109.0,11078411.0,
1473.0,1650.0,2735.0,3087.0,11078415.0,
1474.0,1655.0,2745.0,3069.0,11078418.0,
1474.0,1651.0,2752.0,3053.0,11078422.0,
1481.0,1649.0,2758.0,3028.0,11078426.0,
1473.0,1652.0,2761.0,3005.0,11078429.0,
1474.0,1652.0,2764.0,2980.0,11078433.0,
1474.0,1651.0,2757.0,2958.0,11078437.0,
1474.0,1650.0,2751.0,2931.0,11078440.0,
1474.0,1651.0,2745.0,2909.0,11078444.0,
1474.0,1651.0,2733.0,2881.0,11078448.0,
1473.0,1651.0,2721.0,2854.0,11078451.0,
1474.0,1651.0,2707.0,2830.0,11078455.0,
1473.0,1651.0,2692.0,2806.0,11078458.0,
1474.0,1651.0,2680.0,2783.0,11078462.0,
1473.0,1650.0,2658.0,2759.0,11078466.0,
1473.0,1651.0,2641.0,2738.0,11078469.0,
1475.0,1651.0,2624.0,2709.0,11078473.0,
1473.0,1651.0,2605.0,2690.0,11078477.0,
1476.0,1650.0,2581.0,2667.0,11078480.0,
1473.0,1651.0,2563.0,2647.0,11078484.0,
1473.0,1649.0,2542.0,2625.0,11078488.0,
1474.0,1651.0,2520.0,2603.0,11078491.0,
1474.0,1650.0,2499.0,2581.0,11078495.0,
1473.0,1650.0,2480.0,2557.0,11078498.0,
1473.0,1651.0,2460.0,2533.0,11078502.0,
1473.0,1650.0,2443.0,2509.0,11078506.0,
1474.0,1649.0,2428.0,2483.0,11078509.0,
1473.0,1650.0,2405.0,2459.0,11078513.0,
1472.0,1650.0,2387.0,2437.0,11078517.0,
1474.0,1649.0,2368.0,2410.0,11078520.0,
1473.0,1649.0,2352.0,2388.0,11078524.0,
1473.0,1649.0,2332.0,2359.0,11078528.0,
1470.0,1649.0,2315.0,2337.0,11078531.0,
1474.0,1648.0,2294.0,2312.0,11078535.0,
1474.0,1647.0,2279.0,2286.0,11078538.0,
1472.0,1649.0,2261.0,2260.0,11078542.0,
1473.0,1648.0,2244.0,2238.0,11078546.0,
1474.0,1648.0,2228.0,2217.0,11078549.0,
1473.0,1649.0,2211.0,2196.0,11078553.0,
1475.0,1649.0,2195.0,2176.0,11078557.0,
1473.0,1644.0,2179.0,2157.0,11078560.0,
1472.0,1648.0,2161.0,2140.0,11078564.0,
1473.0,1652.0,2143.0,2127.0,11078567.0,
1472.0,1649.0,2134.0,2111.0,11078571.0,
1471.0,1649.0,2111.0,2103.0,11078575.0,
1472.0,1649.0,2097.0,2091.0,11078578.0,
1473.0,1649.0,2083.0,2083.0,11078582.0,
1470.0,1649.0,2071.0,2076.0,11078586.0,
1472.0,1652.0,2057.0,2070.0,11078589.0,
1472.0,1648.0,2045.0,2062.0,11078593.0,
1472.0,1650.0,2035.0,2056.0,11078597.0,
1471.0,1649.0,2025.0,2049.0,11078600.0,
1476.0,1650.0,2018.0,2047.0,11078604.0,
1472.0,1650.0,2009.0,2042.0,11078607.0,
1472.0,1651.0,2002.0,2038.0,11078611.0,
1471.0,1651.0,2000.0,2033.0,11078615.0,
1472.0,1650.0,1994.0,2028.0,11078618.0,
1471.0,1651.0,1989.0,2023.0,11078622.0,
1469.0,1650.0,1989.0,2019.0,11078626.0,
1471.0,1650.0,1984.0,2015.0,11078629.0,
1476.0,1651.0,1987.0,2013.0,11078633.0,
1471.0,1648.0,1987.0,2007.0,11078637.0,
1471.0,1650.0,1988.0,2001.0,11078640.0,
1471.0,1651.0,1990.0,1999.0,11078644.0,
1471.0,1647.0,1993.0,1995.0,11078647.0,
1471.0,1655.0,1998.0,1989.0,11078651.0,
1471.0,1650.0,2002.0,1983.0,11078655.0,
1471.0,1652.0,2005.0,1976.0,11078658.0,
1472.0,1651.0,2009.0,1968.0,11078662.0,
1470.0,1652.0,2010.0,1961.0,11078666.0,
1471.0,1652.0,2012.0,1955.0,11078669.0,
1471.0,1653.0,2016.0,1948.0,11078673.0,
1470.0,1653.0,2019.0,1941.0,11078677.0,
1471.0,1650.0,2024.0,1923.0,11078680.0,
1471.0,1653.0,2026.0,1920.0,11078684.0,
1470.0,1653.0,2030.0,1908.0,11078687.0,
1471.0,1653.0,2032.0,1895.0,11078691.0,
1470.0,1653.0,2034.0,1882.0,11078695.0,
1471.0,1653.0,2036.0,1867.0,11078698.0,
1471.0,1657.0,2038.0,1850.0,11078702.0,
1471.0,1653.0,2041.0,1835.0,11078706.0,
1471.0,1654.0,2041.0,1818.0,11078709.0,
1471.0,1655.0,2041.0,1802.0,11078713.0,
1470.0,1654.0,2042.0,1786.0,11078717.0,
1470.0,1653.0,2041.0,1769.0,11078720.0,
1471.0,1654.0,2040.0,1752.0,11078724.0,
1471.0,1654.0,2038.0,1740.0,11078727.0,
1470.0,1653.0,2033.0,1726.0,11078731.0,
1471.0,1654.0,2032.0,1714.0,11078735.0,
1470.0,1655.0,2028.0,1699.0,11078738.0,
1470.0,1653.0,2021.0,1686.0,11078742.0,
1471.0,1654.0,2019.0,1673.0,11078746.0,
1470.0,1654.0,2012.0,1658.0,11078749.0,
1470.0,1653.0,2008.0,1648.0,11078753.0,
1469.0,1654.0,2003.0,1636.0,11078756.0,
1469.0,1654.0,1996.0,1625.0,11078760.0,
1470.0,1653.0,1991.0,1612.0,11078764.0,
1470.0,1655.0,1983.0,1601.0,11078767.0,
1474.0,1654.0,1975.0,1589.0,11078771.0,
1470.0,1654.0,1971.0,1577.0,11078775.0,
1469.0,1653.0,1963.0,1564.0,11078778.0,
1470.0,1654.0,1957.0,1554.0,11078782.0,
1470.0,1654.0,1948.0,1542.0,11078786.0,
1470.0,1657.0,1937.0,1532.0,11078789.0,
1470.0,1652.0,1929.0,1521.0,11078793.0,
1470.0,1654.0,1920.0,1515.0,11078796.0,
1470.0,1653.0,1914.0,1507.0,11078800.0,
1470.0,1654.0,1910.0,1501.0,11078804.0,
1469.0,1654.0,1911.0,1490.0,11078807.0,
1470.0,1654.0,1896.0,1481.0,11078811.0,
1470.0,1655.0,1893.0,1478.0,11078815.0,
1472.0,1655.0,1888.0,1468.0,11078818.0,
1470.0,1655.0,1882.0,1470.0,11078822.0,
1469.0,1654.0,1880.0,1466.0,11078826.0,
1470.0,1652.0,1875.0,1467.0,11078829.0,
1471.0,1654.0,1872.0,1463.0,11078833.0,
1470.0,1654.0,1872.0,1469.0,11078836.0,
1469.0,1654.0,1870.0,1469.0,11078840.0,
1470.0,1654.0,1868.0,1474.0,11078844.0,
1469.0,1654.0,1862.0,1479.0,11078847.0,
1470.0,1654.0,1862.0,1487.0,11078851.0,
1471.0,1655.0,1858.0,1498.0,11078855.0,
1470.0,1653.0,1858.0,1507.0,11078858.0,
1470.0,1654.0,1855.0,1521.0,11078862.0,
1470.0,1653.0,1851.0,1528.0,11078866.0,
1470.0,1654.0,1850.0,1535.0,11078869.0,
1469.0,1655.0,1844.0,1546.0,11078873.0,
1471.0,1654.0,1842.0,1557.0,11078876.0,
1470.0,1653.0,1840.0,1564.0,11078880.0,
1470.0,1654.0,1836.0,1572.0,11078884.0,
1470.0,1654.0,1835.0,1581.0,11078887.0,
1470.0,1653.0,1832.0,1588.0,11078891.0,
1470.0,1650.0,1830.0,1600.0,11078895.0,
1472.0,1654.0,1829.0,1608.0,11078898.0,
1465.0,1652.0,1827.0,1614.0,11078902.0,
1470.0,1654.0,1826.0,1622.0,11078906.0,
1471.0,1654.0,1825.0,1629.0,11078909.0,
1471.0,1653.0,1826.0,1636.0,11078913.0,
1469.0,1654.0,1826.0,1645.0,11078916.0,
1472.0,1654.0,1826.0,1649.0,11078920.0,
1470.0,1652.0,1828.0,1653.0,11078924.0,
1471.0,1654.0,1826.0,1660.0,11078927.0,
1470.0,1653.0,1825.0,1662.0,11078931.0,
1470.0,1654.0,1831.0,1667.0,11078935.0,
1470.0,1652.0,1832.0,1669.0,11078938.0,
1470.0,1653.0,1832.0,1675.0,11078942.0,
1471.0,1652.0,1831.0,1682.0,11078945.0,
1471.0,1653.0,1834.0,1686.0,11078949.0,
1471.0,1653.0,1833.0,1689.0,11078953.0,
1470.0,1653.0,1834.0,1691.0,11078956.0,
1471.0,1651.0,1832.0,1694.0,11078960.0,
1471.0,1653.0,1830.0,1694.0,11078964.0,
1470.0,1653.0,1827.0,1694.0,11078967.0,
1471.0,1651.0,1829.0,1694.0,11078971.0,
1471.0,1652.0,1828.0,1692.0,11078975.0,
1470.0,1651.0,1828.0,1689.0,11078978.0,
1471.0,1652.0,1827.0,1688.0,11078982.0,
1471.0,1651.0,1825.0,1688.0,11078985.0,
1471.0,1650.0,1824.0,1682.0,11078989.0,
1471.0,1653.0,1824.0,1679.0,11078993.0,
1470.0,1651.0,1826.0,1673.0,11078996.0,
1464.0,1652.0,1824.0,1673.0,11079000.0,
1468.0,1650.0,1819.0,1666.0,11079004.0,
1471.0,1652.0,1822.0,1665.0,11079007.0,
1470.0,1652.0,1822.0,1657.0,11079011.0,
1471.0,1650.0,1821.0,1655.0,11079015.0,
1472.0,1650.0,1824.0,1651.0,11079018.0,
1470.0,1651.0,1819.0,1645.0,11079022.0,
1470.0,1650.0,1825.0,1637.0,11079025.0,
1472.0,1650.0,1826.0,1641.0,11079029.0,
1470.0,1651.0,1826.0,1641.0,11079033.0,
1471.0,1650.0,1825.0,1636.0,11079036.0,
1471.0,1650.0,1826.0,1637.0,11079040.0,
1472.0,1651.0,1827.0,1634.0,11079044.0,
1471.0,1651.0,1825.0,1632.0,11079047.0,
1471.0,1650.0,1828.0,1630.0,11079051.0,
1472.0,1650.0,1828.0,1630.0,11079055.0,
1471.0,1650.0,1828.0,1626.0,11079058.0,
1470.0,1649.0,1828.0,1622.0,11079062.0,
1471.0,1650.0,1831.0,1617.0,11079065.0,
1471.0,1646.0,1832.0,1615.0,11079069.0,
1471.0,1650.0,1833.0,1607.0,11079073.0,
1472.0,1650.0,1834.0,1605.0,11079076.0,
1471.0,1651.0,1835.0,1599.0,11079080.0,
1471.0,1648.0,1835.0,1598.0,11079084.0,
1470.0,1650.0,1837.0,1596.0,11079087.0,
1470.0,1649.0,1839.0,1593.0,11079091.0,
1471.0,1650.0,1841.0,1592.0,11079095.0,
1470.0,1650.0,1841.0,1588.0,11079098.0,
1471.0,1650.0,1844.0,1589.0,11079102.0,
1472.0,1650.0,1842.0,1590.0,11079105.0,
1471.0,1649.0,1845.0,1585.0,11079109.0,
1474.0,1650.0,1845.0,1587.0,11079113.0,
1471.0,1650.0,1842.0,1588.0,11079116.0,
1472.0,1649.0,1847.0,1588.0,11079120.0,
1471.0,1649.0,1846.0,1593.0,11079124.0,
1471.0,1650.0,1848.0,1599.0,11079127.0,
1471.0,1649.0,1849.0,1602.0,11079131.0,
1471.0,1651.0,1848.0,1616.0,11079135.0,
1470.0,1651.0,1850.0,1628.0,11079138.0,
1471.0,1650.0,1852.0,1649.0,11079142.0,
1471.0,1647.0,1851.0,1672.0,11079145.0,
1471.0,1650.0,1853.0,1702.0,11079149.0,
1471.0,1650.0,1854.0,1736.0,11079153.0,
1472.0,1651.0,1851.0,1776.0,11079156.0,
1471.0,1651.0,1853.0,1819.0,11079160.0,
1471.0,1650.0,1855.0,1869.0,11079164.0,
1471.0,1650.0,1857.0,1920.0,11079167.0,
1470.0,1652.0,1858.0,1976.0,11079171.0,
1471.0,1652.0,1860.0,2038.0,11079174.0,
1471.0,1651.0,1864.0,2097.0,11079178.0,
1471.0,1652.0,1872.0,2159.0,11079182.0,
1471.0,1652.0,1878.0,2224.0,11079185.0,
1471.0,1651.0,1884.0,2285.0,11079189.0,
1470.0,1651.0,1895.0,2352.0,11079193.0,
1471.0,1651.0,1907.0,2416.0,11079196.0,
1471.0,1652.0,1920.0,2472.0,11079200.0,
1471.0,1652.0,1933.0,2539.0,11079204.0,
1471.0,1653.0,1951.0,2601.0,11079207.0,
1471.0,1652.0,1975.0,2658.0,11079211.0,
1472.0,1651.0,1999.0,2717.0,11079214.0,
1472.0,1652.0,2022.0,2770.0,11079218.0,
1471.0,1651.0,2054.0,2819.0,11079222.0,
1471.0,1652.0,2089.0,2864.0,11079225.0,
1472.0,1652.0,2123.0,2904.0,11079229.0,
1471.0,1652.0,2161.0,2940.0,11079233.0,
1472.0,1652.0,2201.0,2969.0,11079236.0,
1472.0,1653.0,2244.0,2996.0,11079240.0,
1471.0,1652.0,2286.0,3015.0,11079244.0,
1472.0,1651.0,2332.0,3034.0,11079247.0,
1473.0,1652.0,2375.0,3044.0,11079251.0,
1473.0,1649.0,2422.0,3055.0,11079254.0,
1472.0,1653.0,2467.0,3054.0,11079258.0,
1473.0,1654.0,2513.0,3052.0,11079262.0,
1472.0,1651.0,2549.0,3052.0,11079265.0,
1473.0,1653.0,2590.0,3043.0,11079269.0,
1473.0,1653.0,2629.0,3029.0,11079273.0,
1473.0,1652.0,2663.0,3014.0,11079276.0,
1473.0,1652.0,2694.0,2998.0,11079280.0,
1472.0,1652.0,2723.0,2976.0,11079284.0,
1473.0,1650.0,2748.0,2954.0,11079287.0,
1473.0,1651.0,2770.0,2927.0,11079291.0,
1473.0,1648.0,2789.0,2902.0,11079294.0,
1473.0,1652.0,2803.0,2872.0,11079298.0,
1473.0,1654.0,2812.0,2840.0,11079302.0,
1473.0,1651.0,2822.0,2811.0,11079305.0,
1473.0,1650.0,2826.0,2778.0,11079309.0,
1473.0,1650.0,2825.0,2746.0,11079313.0,
1474.0,1651.0,2823.0,2714.0,11079316.0,
1473.0,1652.0,2817.0,2680.0,11079320.0,
1473.0,1652.0,2807.0,2649.0,11079324.0,
1474.0,1652.0,2795.0,2621.0,11079327.0,
1473.0,1650.0,2783.0,2589.0,11079331.0,
1473.0,1650.0,2768.0,2560.0,11079334.0,
1473.0,1650.0,2748.0,2530.0,11079338.0,
1474.0,1652.0,2728.0,2500.0,11079342.0,
1473.0,1652.0,2704.0,2475.0,11079345.0,
1474.0,1650.0,2677.0,2450.0,11079349.0,
1472.0,1650.0,2650.0,2424.0,11079353.0,
1474.0,1651.0,2624.0,2402.0,11079356.0,
1474.0,1651.0,2596.0,2376.0,11079360.0,
1473.0,1650.0,2567.0,2357.0,11079363.0,
1473.0,1650.0,2543.0,2335.0,11079367.0,
1474.0,1651.0,2516.0,2314.0,11079371.0,
1473.0,1651.0,2489.0,2300.0,11079374.0,
1475.0,1649.0,2461.0,2277.0,11079378.0,
1475.0,1650.0,2435.0,2256.0,11079382.0,
1474.0,1650.0,2410.0,2238.0,11079385.0,
1474.0,1650.0,2387.0,2220.0,11079389.0,
1473.0,1649.0,2360.0,2199.0,11079393.0,
1473.0,1648.0,2337.0,2181.0,11079396.0,
1474.0,1650.0,2314.0,2163.0,11079400.0,
1473.0,1650.0,2291.0,2145.0,11079403.0,
1474.0,1648.0,2267.0,2133.0,11079407.0,
1474.0,1649.0,2244.0,2116.0,11079411.0,
1473.0,1649.0,2220.0,2104.0,11079414.0,
1474.0,1649.0,2199.0,2087.0,11079418.0,
1474.0,1649.0,2177.0,2072.0,11079422.0,
1474.0,1650.0,2157.0,2058.0,11079425.0,
1474.0,1650.0,2138.0,2046.0,11079429.0,
1474.0,1650.0,2123.0,2031.0,11079433.0,
1474.0,1649.0,2107.0,2016.0,11079436.0,
1474.0,1650.0,2088.0,2007.0,11079440.0,
1475.0,1650.0,2073.0,1999.0,11079443.0,
1474.0,1652.0,2060.0,1992.0,11079447.0,
1474.0,1652.0,2046.0,1987.0,11079451.0,
1474.0,1652.0,2033.0,1981.0,11079454.0,
1475.0,1652.0,2020.0,1981.0,11079458.0,
1475.0,1651.0,2008.0,1978.0,11079462.0,
1474.0,1652.0,1997.0,1981.0,11079465.0,
1475.0,1652.0,1983.0,1982.0,11079469.0,
1475.0,1654.0,1974.0,1985.0,11079473.0,
1474.0,1654.0,1961.0,1990.0,11079476.0,
1468.0,1654.0,1954.0,1991.0,11079480.0,
1477.0,1656.0,1946.0,1997.0,11079483.0,
1475.0,1657.0,1941.0,2004.0,11079487.0,
1475.0,1651.0,1936.0,2001.0,11079491.0,
1474.0,1655.0,1933.0,2010.0,11079494.0,
1475.0,1656.0,1933.0,2014.0,11079498.0,
1475.0,1658.0,1933.0,2019.0,11079502.0,
1474.0,1658.0,1932.0,2027.0,11079505.0,
1481.0,1659.0,1935.0,2032.0,11079509.0,
1473.0,1659.0,1937.0,2038.0,11079513.0,
1475.0,1660.0,1942.0,2045.0,11079516.0,
1475.0,1660.0,1946.0,2048.0,11079520.0,
1475.0,1655.0,1945.0,2054.0,11079523.0,
1474.0,1661.0,1952.0,2056.0,11079527.0,
1476.0,1660.0,1963.0,2061.0,11079531.0,
1475.0,1661.0,1972.0,2061.0,11079534.0,
1476.0,1658.0,1979.0,2065.0,11079538.0,
1476.0,1661.0,1989.0,2065.0,11079542.0,
1476.0,1663.0,1997.0,2068.0,11079545.0,
1476.0,1660.0,2003.0,2066.0,11079549.0,
1475.0,1662.0,2013.0,2068.0,11079553.0,
1476.0,1661.0,2024.0,2064.0,11079556.0,
1476.0,1655.0,2034.0,2061.0,11079560.0,
1476.0,1661.0,2046.0,2058.0,11079563.0,
1475.0,1661.0,2057.0,2054.0,11079567.0,
1477.0,1661.0,2067.0,2048.0,11079571.0,
1476.0,1662.0,2081.0,2045.0,11079574.0,
1476.0,1661.0,2089.0,2037.0,11079578.0,
1471.0,1660.0,2096.0,2031.0,11079582.0,
1476.0,1661.0,2109.0,2025.0,11079585.0,
1476.0,1662.0,2120.0,2015.0,11079589.0,
1476.0,1661.0,2129.0,2007.0,11079592.0,
1476.0,1661.0,2139.0,2000.0,11079596.0,
1478.0,1659.0,2147.0,1989.0,11079600.0,
1476.0,1662.0,2155.0,1986.0,11079603.0,
1476.0,1663.0,2161.0,1975.0,11079607.0,
1476.0,1661.0,2165.0,1962.0,11079611.0,
1476.0,1661.0,2171.0,1954.0,11079614.0,
1476.0,1660.0,2172.0,1941.0,11079618.0,
1478.0,1662.0,2175.0,1929.0,11079622.0,
1477.0,1661.0,2174.0,1919.0,11079625.0,
1477.0,1662.0,2179.0,1907.0,11079629.0,
1477.0,1662.0,2178.0,1894.0,11079632.0,
1477.0,1662.0,2176.0,1880.0,11079636.0,
1477.0,1663.0,2173.0,1870.0,11079640.0,
1477.0,1661.0,2172.0,1855.0,11079643.0,
1477.0,1662.0,2169.0,1842.0,11079647.0,
1477.0,1660.0,2167.0,1827.0,11079651.0,
1478.0,1662.0,2163.0,1816.0,11079654.0,
1478.0,1661.0,2158.0,1802.0,11079658.0,
1478.0,1661.0,2151.0,1789.0,11079662.0,
1477.0,1663.0,2146.0,1777.0,11079665.0,
1477.0,1661.0,2137.0,1766.0,11079669.0,
1476.0,1660.0,2130.0,1753.0,11079672.0,
1477.0,1660.0,2122.0,1745.0,11079676.0,
1478.0,1661.0,2114.0,1736.0,11079680.0,
1477.0,1661.0,2108.0,1729.0,11079683.0,
1477.0,1661.0,2095.0,1723.0,11079687.0,
1477.0,1660.0,2091.0,1716.0,11079691.0,
1478.0,1656.0,2080.0,1710.0,11079694.0,
1478.0,1661.0,2071.0,1703.0,11079698.0,
1477.0,1660.0,2065.0,1697.0,11079702.0,
1478.0,1659.0,2057.0,1695.0,11079705.0,
1478.0,1661.0,2048.0,1690.0,11079709.0,
1477.0,1661.0,2040.0,1686.0,11079712.0,
1477.0,1667.0,2029.0,1686.0,11079716.0,
1478.0,1660.0,2020.0,1680.0,11079720.0,
1478.0,1659.0,2011.0,1682.0,11079723.0,
1478.0,1660.0,2003.0,1681.0,11079727.0,
1478.0,1660.0,1994.0,1677.0,11079731.0,
1478.0,1660.0,1986.0,1678.0,11079734.0,
1477.0,1660.0,1978.0,1679.0,11079738.0,
1478.0,1660.0,1972.0,1678.0,11079742.0,
1474.0,1659.0,1968.0,1677.0,11079745.0,
1478.0,1659.0,1959.0,1674.0,11079749.0,
1478.0,1662.0,1949.0,1672.0,11079752.0,
1478.0,1659.0,1942.0,1672.0,11079756.0,
1478.0,1661.0,1937.0,1664.0,11079760.0,
1478.0,1660.0,1930.0,1668.0,11079763.0,
1478.0,1660.0,1923.0,1664.0,11079767.0,
1476.0,1659.0,1918.0,1664.0,11079771.0,
1479.0,1658.0,1911.0,1661.0,11079774.0,
1478.0,1661.0,1905.0,1660.0,11079778.0,
1479.0,1660.0,1898.0,1660.0,11079781.0,
1479.0,1660.0,1894.0,1654.0,11079785.0,
1478.0,1660.0,1890.0,1656.0,11079789.0,
1478.0,1659.0,1887.0,1656.0,11079792.0,
1479.0,1661.0,1879.0,1657.0,11079796.0,
1479.0,1660.0,1877.0,1654.0,11079800.0,
1478.0,1660.0,1871.0,1656.0,11079803.0,
1478.0,1665.0,1867.0,1655.0,11079807.0,
1478.0,1659.0,1864.0,1654.0,11079811.0,
1477.0,1660.0,1858.0,1653.0,11079814.0,
1479.0,1660.0,1852.0,1652.0,11079818.0,
1484.0,1660.0,1850.0,1651.0,11079821.0,
1480.0,1660.0,1850.0,1649.0,11079825.0,
1482.0,1660.0,1848.0,1644.0,11079829.0,
1478.0,1660.0,1846.0,1644.0,11079832.0,
1478.0,1659.0,1845.0,1643.0,11079836.0,
1478.0,1659.0,1842.0,1646.0,11079840.0,
1479.0,1660.0,1842.0,1647.0,11079843.0,
1479.0,1660.0,1839.0,1648.0,11079847.0,
1478.0,1659.0,1837.0,1648.0,11079851.0,
1479.0,1660.0,1833.0,1652.0,11079854.0,
1485.0,1660.0,1831.0,1651.0,11079858.0,
1478.0,1660.0,1830.0,1655.0,11079861.0,
1479.0,1659.0,1827.0,1659.0,11079865.0,
1479.0,1657.0,1829.0,1655.0,11079869.0,
1475.0,1660.0,1828.0,1662.0,11079872.0,
1479.0,1661.0,1830.0,1666.0,11079876.0,
1479.0,1660.0,1826.0,1669.0,11079880.0,
1478.0,1659.0,1827.0,1669.0,11079883.0,
1479.0,1659.0,1827.0,1670.0,11079887.0,
1478.0,1659.0,1827.0,1670.0,11079891.0,
1479.0,1659.0,1827.0,1672.0,11079894.0,
1478.0,1659.0,1829.0,1670.0,11079898.0,
1479.0,1660.0,1831.0,1667.0,11079901.0,
1478.0,1658.0,1834.0,1668.0,11079905.0,
1479.0,1659.0,1832.0,1664.0,11079909.0,
1480.0,1658.0,1835.0,1665.0,11079912.0,
1478.0,1657.0,1839.0,1660.0,11079916.0,
1479.0,1657.0,1839.0,1659.0,11079920.0,
1480.0,1658.0,1841.0,1648.0,11079923.0,
1479.0,1659.0,1842.0,1655.0,11079927.0,
1480.0,1658.0,1843.0,1651.0,11079931.0,
1479.0,1657.0,1844.0,1651.0,11079934.0,
1481.0,1657.0,1847.0,1649.0,11079938.0,
1479.0,1657.0,1847.0,1645.0,11079941.0,
1479.0,1656.0,1848.0,1640.0,11079945.0,
1480.0,1657.0,1849.0,1634.0,11079949.0,
1480.0,1658.0,1851.0,1630.0,11079952.0,
1480.0,1657.0,1851.0,1625.0,11079956.0,
1481.0,1658.0,1853.0,1620.0,11079960.0,
1479.0,1660.0,1854.0,1613.0,11079963.0,
1477.0,1658.0,1857.0,1608.0,11079967.0,
1480.0,1656.0,1859.0,1604.0,11079971.0,
1479.0,1658.0,1858.0,1603.0,11079974.0,
1480.0,1657.0,1861.0,1600.0,11079978.0,
1480.0,1656.0,1858.0,1596.0,11079981.0,
1478.0,1656.0,1856.0,1599.0,11079985.0,
1480.0,1656.0,1858.0,1602.0,11079989.0,
1481.0,1657.0,1859.0,1602.0,11079992.0,
1480.0,1656.0,1854.0,1611.0,11079996.0,
1479.0,1655.0,1852.0,1616.0,11080000.0,
1479.0,1657.0,1851.0,1632.0,11080003.0,
1480.0,1659.0,1849.0,1649.0,11080007.0,
1479.0,1657.0,1849.0,1672.0,11080011.0,
1479.0,1658.0,1850.0,1697.0,11080014.0,
1479.0,1656.0,1849.0,1728.0,11080018.0,
1480.0,1657.0,1850.0,1763.0,11080021.0,
1480.0,1657.0,1854.0,1804.0,11080025.0,
1480.0,1656.0,1858.0,1848.0,11080029.0,
1480.0,1655.0,1855.0,1898.0,11080032.0,
1480.0,1656.0,1867.0,1953.0,11080036.0,
1481.0,1656.0,1879.0,2006.0,11080040.0,
1481.0,1656.0,1888.0,2064.0,11080043.0,
1480.0,1655.0,1898.0,2126.0,11080047.0,
1481.0,1656.0,1915.0,2188.0,11080050.0,
1482.0,1656.0,1933.0,2248.0,11080054.0,
1480.0,1656.0,1953.0,2312.0,11080058.0,
1480.0,1656.0,1980.0,2371.0,11080061.0,
1478.0,1655.0,2005.0,2431.0,11080065.0,
1481.0,1655.0,2037.0,2489.0,11080069.0,
1481.0,1656.0,2073.0,2551.0,11080072.0,
1482.0,1654.0,2108.0,2604.0,11080076.0,
1482.0,1655.0,2150.0,2655.0,11080080.0,
1481.0,1655.0,2193.0,2707.0,11080083.0,
1482.0,1656.0,2242.0,2751.0,11080087.0,
1484.0,1655.0,2292.0,2793.0,11080090.0,
1482.0,1655.0,2342.0,2830.0,11080094.0,
1482.0,1655.0,2396.0,2859.0,11080098.0,
1482.0,1653.0,2452.0,2888.0,11080101.0,
1482.0,1655.0,2505.0,2910.0,11080105.0,
1482.0,1653.0,2558.0,2929.0,11080109.0,
1485.0,1654.0,2610.0,2942.0,11080112.0,
1482.0,1655.0,2661.0,2951.0,11080116.0,
1485.0,1654.0,2711.0,2962.0,11080120.0,
1483.0,1651.0,2757.0,2957.0,11080123.0,
1482.0,1653.0,2800.0,2957.0,11080127.0,
1483.0,1654.0,2840.0,2948.0,11080130.0,
1483.0,1657.0,2877.0,2939.0,11080134.0,
1483.0,1654.0,2910.0,2924.0,11080138.0,
1482.0,1653.0,2938.0,2903.0,11080141.0,
1482.0,1654.0,2963.0,2885.0,11080145.0,
1484.0,1653.0,2983.0,2862.0,11080149.0,
1483.0,1654.0,2998.0,2838.0,11080152.0,
1483.0,1654.0,3010.0,2810.0,11080156.0,
1484.0,1653.0,3016.0,2784.0,11080160.0,
1484.0,1653.0,3015.0,2754.0,11080163.0,
1483.0,1655.0,3013.0,2722.0,11080167.0,
1483.0,1653.0,3006.0,2694.0,11080170.0,
1482.0,1654.0,2995.0,2663.0,11080174.0,
1483.0,1653.0,2979.0,2627.0,11080178.0,
1481.0,1654.0,2962.0,2604.0,11080181.0,
1484.0,1650.0,2937.0,2573.0,11080185.0,
1483.0,1654.0,2916.0,2547.0,11080189.0,
1484.0,1654.0,2886.0,2518.0,11080192.0,
1484.0,1653.0,2860.0,2491.0,11080196.0,
1483.0,1654.0,2826.0,2465.0,11080200.0,
1484.0,1652.0,2792.0,2440.0,11080203.0,
1484.0,1653.0,2757.0,2422.0,11080207.0,
1485.0,1647.0,2722.0,2394.0,11080210.0,
1485.0,1651.0,2689.0,2371.0,11080214.0,
1483.0,1654.0,2653.0,2348.0,11080218.0,
1484.0,1652.0,2618.0,2327.0,11080221.0,
1484.0,1651.0,2579.0,2304.0,11080225.0,
1485.0,1653.0,2545.0,2279.0,11080229.0,
1485.0,1654.0,2507.0,2258.0,11080232.0,
1484.0,1653.0,2475.0,2239.0,11080236.0,
1482.0,1651.0,2443.0,2214.0,11080239.0,
1484.0,1652.0,2411.0,2194.0,11080243.0,
1484.0,1653.0,2379.0,2167.0,11080247.0,
1484.0,1652.0,2350.0,2145.0,11080250.0,
1484.0,1653.0,2322.0,2118.0,11080254.0,
1484.0,1652.0,2298.0,2096.0,11080258.0,
1484.0,1651.0,2276.0,2071.0,11080261.0,
1484.0,1651.0,2254.0,2051.0,11080265.0,
1484.0,1651.0,2234.0,2027.0,11080269.0,
1485.0,1653.0,2212.0,2008.0,11080272.0,
1484.0,1651.0,2193.0,1987.0,11080276.0,
1484.0,1652.0,2168.0,1969.0,11080279.0,
1484.0,1651.0,2153.0,1956.0,11080283.0,
1485.0,1651.0,2137.0,1942.0,11080287.0,
1485.0,1648.0,2120.0,1926.0,11080290.0,
1482.0,1652.0,2104.0,1914.0,11080294.0,
1484.0,1651.0,2087.0,1902.0,11080298.0,
1485.0,1650.0,2071.0,1895.0,11080301.0,
1479.0,1651.0,2059.0,1883.0,11080305.0,
1484.0,1651.0,2042.0,1875.0,11080309.0,
1484.0,1652.0,2032.0,1870.0,11080312.0,
1485.0,1652.0,2020.0,1865.0,11080316.0,
1485.0,1651.0,2006.0,1858.0,11080319.0,
1484.0,1652.0,1997.0,1854.0,11080323.0,
1485.0,1651.0,1989.0,1847.0,11080327.0,
1485.0,1652.0,1980.0,1843.0,11080330.0,
1486.0,1650.0,1976.0,1836.0,11080334.0,
1483.0,1651.0,1968.0,1834.0,11080338.0,
1485.0,1650.0,1962.0,1832.0,11080341.0,
1485.0,1652.0,1958.0,1835.0,11080345.0,
1485.0,1650.0,1955.0,1826.0,11080349.0,
1485.0,1651.0,1951.0,1832.0,11080352.0,
1485.0,1650.0,1950.0,1827.0,11080356.0,
1485.0,1650.0,1949.0,1837.0,11080359.0,
1485.0,1651.0,1950.0,1837.0,11080363.0,
1485.0,1650.0,1949.0,1840.0,11080367.0,
1484.0,1651.0,1949.0,1839.0,11080370.0,
1485.0,1651.0,1952.0,1842.0,11080374.0,
1485.0,1649.0,1953.0,1840.0,11080378.0,
1485.0,1651.0,1956.0,1846.0,11080381.0,
1486.0,1649.0,1960.0,1844.0,11080385.0,
1486.0,1650.0,1964.0,1847.0,11080389.0,
1486.0,1650.0,1971.0,1849.0,11080392.0,
1485.0,1649.0,1977.0,1851.0,11080396.0,
1485.0,1650.0,1982.0,1850.0,11080399.0,
1484.0,1651.0,1990.0,1854.0,11080403.0,
1486.0,1646.0,1998.0,1851.0,11080407.0,
1486.0,1651.0,2003.0,1853.0,11080410.0,
1485.0,1651.0,2011.0,1852.0,11080414.0,
1485.0,1648.0,2018.0,1850.0,11080418.0,
1486.0,1650.0,2023.0,1849.0,11080421.0,
1487.0,1649.0,2028.0,1849.0,11080425.0,
1486.0,1650.0,2031.0,1848.0,11080429.0,
1486.0,1650.0,2036.0,1845.0,11080432.0,
1487.0,1649.0,2039.0,1842.0,11080436.0,
1486.0,1649.0,2045.0,1835.0,11080439.0,
1485.0,1650.0,2048.0,1831.0,11080443.0,
1486.0,1650.0,2052.0,1828.0,11080447.0,
1486.0,1649.0,2053.0,1820.0,11080450.0,
1486.0,1650.0,2054.0,1814.0,11080454.0,
1486.0,1648.0,2053.0,1805.0,11080458.0,
1486.0,1648.0,2053.0,1800.0,11080461.0,
1486.0,1650.0,2051.0,1788.0,11080465.0,
1486.0,1650.0,2048.0,1780.0,11080468.0,
1487.0,1651.0,2044.0,1770.0,11080472.0,
1486.0,1649.0,2040.0,1759.0,11080476.0,
1487.0,1650.0,2035.0,1750.0,11080479.0,
1487.0,1649.0,2030.0,1742.0,11080483.0,
1486.0,1649.0,2024.0,1736.0,11080487.0,
1486.0,1648.0,2017.0,1727.0,11080490.0,
1486.0,1649.0,2010.0,1724.0,11080494.0,
1491.0,1649.0,2002.0,1712.0,11080498.0,
1487.0,1647.0,1991.0,1705.0,11080501.0,
1486.0,1648.0,1981.0,1695.0,11080505.0,
1486.0,1650.0,1974.0,1687.0,11080508.0,
1486.0,1648.0,1964.0,1678.0,11080512.0,
1486.0,1649.0,1956.0,1672.0,11080516.0,
1486.0,1647.0,1945.0,1664.0,11080519.0,
1486.0,1649.0,1936.0,1657.0,11080523.0,
1486.0,1648.0,1928.0,1654.0,11080527.0,
1487.0,1649.0,1918.0,1643.0,11080530.0,
1486.0,1649.0,1911.0,1642.0,11080534.0,
1487.0,1649.0,1903.0,1634.0,11080538.0,
1486.0,1649.0,1893.0,1634.0,11080541.0,
1487.0,1648.0,1884.0,1636.0,11080545.0,
1487.0,1649.0,1873.0,1629.0,11080548.0,
1486.0,1649.0,1866.0,1626.0,11080552.0,
1486.0,1647.0,1859.0,1621.0,11080556.0,
1487.0,1648.0,1849.0,1615.0,11080559.0,
1487.0,1648.0,1843.0,1601.0,11080563.0,
1486.0,1648.0,1838.0,1597.0,11080567.0,
1488.0,1647.0,1830.0,1593.0,11080570.0,
1486.0,1647.0,1823.0,1588.0,11080574.0,
1487.0,1648.0,1816.0,1583.0,11080578.0,
1487.0,1648.0,1811.0,1579.0,11080581.0,
1486.0,1648.0,1809.0,1573.0,11080585.0,
1487.0,1648.0,1802.0,1565.0,11080588.0,
1486.0,1647.0,1795.0,1561.0,11080592.0,
1487.0,1648.0,1791.0,1555.0,11080596.0,
1486.0,1648.0,1787.0,1548.0,11080599.0,
1484.0,1648.0,1786.0,1545.0,11080603.0,
1486.0,1646.0,1783.0,1538.0,11080607.0,
1487.0,1647.0,1780.0,1537.0,11080610.0,
1487.0,1648.0,1775.0,1532.0,11080614.0,
1487.0,1647.0,1777.0,1532.0,11080618.0,
1486.0,1647.0,1775.0,1526.0,11080621.0,
1487.0,1648.0,1775.0,1527.0,11080625.0,
1487.0,1647.0,1777.0,1520.0,11080628.0,
1486.0,1649.0,1775.0,1522.0,11080632.0,
1486.0,1647.0,1775.0,1518.0,11080636.0,
1487.0,1648.0,1778.0,1520.0,11080639.0,
1487.0,1647.0,1777.0,1520.0,11080643.0,
1487.0,1648.0,1780.0,1521.0,11080647.0,
1487.0,1648.0,1783.0,1521.0,11080650.0,
1486.0,1647.0,1784.0,1524.0,11080654.0,
1487.0,1651.0,1786.0,1524.0,11080657.0,
1486.0,1649.0,1793.0,1525.0,11080661.0,
1487.0,1647.0,1793.0,1525.0,11080665.0,
1486.0,1648.0,1795.0,1521.0,11080668.0,
1486.0,1648.0,1795.0,1523.0,11080672.0,
1482.0,1649.0,1797.0,1521.0,11080676.0,
1487.0,1642.0,1797.0,1521.0,11080679.0,
1487.0,1648.0,1796.0,1520.0,11080683.0,
1487.0,1648.0,1797.0,1524.0,11080687.0,
1486.0,1648.0,1797.0,1521.0,11080690.0,
1481.0,1648.0,1795.0,1525.0,11080694.0,
1488.0,1649.0,1795.0,1525.0,11080697.0,
1487.0,1649.0,1795.0,1526.0,11080701.0,
1486.0,1648.0,1794.0,1530.0,11080705.0,
1487.0,1649.0,1792.0,1531.0,11080708.0,
1486.0,1649.0,1792.0,1533.0,11080712.0,
1487.0,1648.0,1796.0,1535.0,11080716.0,
1486.0,1650.0,1793.0,1536.0,11080719.0,
1487.0,1649.0,1794.0,1535.0,11080723.0,
1487.0,1649.0,1796.0,1537.0,11080727.0,
1486.0,1649.0,1794.0,1532.0,11080730.0,
1486.0,1649.0,1797.0,1534.0,11080734.0,
1487.0,1648.0,1798.0,1531.0,11080737.0,
1487.0,1649.0,1797.0,1528.0,11080741.0,
1488.0,1650.0,1796.0,1525.0,11080745.0,
1487.0,1649.0,1798.0,1521.0,11080748.0,
1487.0,1649.0,1800.0,1517.0,11080752.0,
1487.0,1649.0,1803.0,1514.0,11080756.0,
1487.0,1650.0,1804.0,1511.0,11080759.0,
1487.0,1649.0,1806.0,1510.0,11080763.0,
1486.0,1649.0,1808.0,1506.0,11080767.0,
1487.0,1649.0,1810.0,1506.0,11080770.0,
1487.0,1648.0,1811.0,1505.0,11080774.0,
1487.0,1650.0,1813.0,1501.0,11080777.0,
1487.0,1650.0,1816.0,1498.0,11080781.0,
1486.0,1653.0,1814.0,1496.0,11080785.0,
1488.0,1650.0,1814.0,1491.0,11080788.0,
1486.0,1650.0,1816.0,1486.0,11080792.0,
1487.0,1649.0,1818.0,1480.0,11080796.0,
1487.0,1649.0,1815.0,1473.0,11080799.0,
1487.0,1650.0,1813.0,1470.0,11080803.0,
1487.0,1649.0,1813.0,1463.0,11080807.0,
1487.0,1650.0,1811.0,1457.0,11080810.0,
1487.0,1649.0,1811.0,1457.0,11080814.0,
1487.0,1651.0,1809.0,1454.0,11080817.0,
1491.0,1651.0,1806.0,1453.0,11080821.0,
1485.0,1649.0,1806.0,1447.0,11080825.0,
1487.0,1651.0,1804.0,1442.0,11080828.0,
1487.0,1652.0,1800.0,1434.0,11080832.0,
1487.0,1650.0,1799.0,1432.0,11080836.0,
1486.0,1651.0,1799.0,1430.0,11080839.0,
1487.0,1649.0,1798.0,1426.0,11080843.0,
1487.0,1650.0,1795.0,1429.0,11080847.0,
1491.0,1649.0,1793.0,1426.0,11080850.0,
1486.0,1651.0,1792.0,1427.0,11080854.0,
1487.0,1650.0,1792.0,1425.0,11080857.0,
1487.0,1646.0,1788.0,1430.0,11080861.0,
1487.0,1651.0,1790.0,1439.0,11080865.0,
1487.0,1650.0,1790.0,1449.0,11080868.0,
1487.0,1650.0,1786.0,1460.0,11080872.0,
1487.0,1654.0,1788.0,1476.0,11080876.0,
1486.0,1650.0,1790.0,1500.0,11080879.0,
1487.0,1651.0,1791.0,1530.0,11080883.0,
1486.0,1651.0,1792.0,1558.0,11080886.0,
1486.0,1651.0,1790.0,1598.0,11080890.0,
1486.0,1651.0,1795.0,1644.0,11080894.0,
1487.0,1652.0,1796.0,1697.0,11080897.0,
1487.0,1651.0,1803.0,1751.0,11080901.0,
1487.0,1651.0,1811.0,1819.0,11080905.0,
1487.0,1652.0,1821.0,1884.0,11080908.0,
1492.0,1651.0,1833.0,1955.0,11080912.0,
1486.0,1651.0,1845.0,2021.0,11080916.0,
1486.0,1651.0,1863.0,2105.0,11080919.0,
1486.0,1650.0,1883.0,2176.0,11080923.0,
1487.0,1651.0,1906.0,2263.0,11080926.0,
1487.0,1651.0,1929.0,2337.0,11080930.0,
1488.0,1651.0,1959.0,2414.0,11080934.0,
1488.0,1645.0,1989.0,2484.0,11080937.0,
1481.0,1651.0,2021.0,2555.0,11080941.0,
1487.0,1651.0,2060.0,2626.0,11080945.0,
1487.0,1650.0,2101.0,2687.0,11080948.0,
1487.0,1646.0,2145.0,2752.0,11080952.0,
1487.0,1650.0,2194.0,2807.0,11080956.0,
1487.0,1652.0,2250.0,2855.0,11080959.0,
1488.0,1651.0,2302.0,2902.0,11080963.0,
1488.0,1651.0,2354.0,2943.0,11080966.0,
1488.0,1651.0,2409.0,2977.0,11080970.0,
1488.0,1651.0,2467.0,3006.0,11080974.0,
1488.0,1656.0,2523.0,3029.0,11080977.0,
1488.0,1652.0,2581.0,3045.0,11080981.0,
1487.0,1652.0,2639.0,3062.0,11080985.0,
1488.0,1652.0,2696.0,3069.0,11080988.0,
1489.0,1650.0,2751.0,3077.0,11080992.0,
1488.0,1652.0,2805.0,3076.0,11080996.0,
1488.0,1652.0,2854.0,3074.0,11080999.0,
1489.0,1652.0,2900.0,3067.0,11081003.0,
1494.0,1650.0,2943.0,3060.0,11081006.0,
1489.0,1652.0,2982.0,3046.0,11081010.0,
1489.0,1650.0,3016.0,3028.0,11081014.0,
1489.0,1652.0,3045.0,3003.0,11081017.0,
1489.0,1652.0,3070.0,2978.0,11081021.0,
1489.0,1652.0,3093.0,2953.0,11081025.0,
1489.0,1653.0,3109.0,2932.0,11081028.0,
1489.0,1650.0,3119.0,2897.0,11081032.0,
1490.0,1651.0,3125.0,2867.0,11081036.0,
1489.0,1652.0,3124.0,2838.0,11081039.0,
1485.0,1651.0,3122.0,2802.0,11081043.0,
1489.0,1652.0,3116.0,2774.0,11081046.0,
1495.0,1652.0,3106.0,2744.0,11081050.0,
1489.0,1652.0,3092.0,2714.0,11081054.0,
1490.0,1652.0,3074.0,2684.0,11081057.0,
1489.0,1651.0,3053.0,2653.0,11081061.0,
1489.0,1653.0,3028.0,2624.0,11081065.0,
1490.0,1652.0,3003.0,2588.0,11081068.0,
1491.0,1654.0,2972.0,2559.0,11081072.0,
1493.0,1653.0,2941.0,2529.0,11081075.0,
1489.0,1653.0,2909.0,2498.0,11081079.0,
1490.0,1652.0,2878.0,2468.0,11081083.0,
1490.0,1654.0,2841.0,2441.0,11081086.0,
1490.0,1654.0,2807.0,2412.0,11081090.0,
1489.0,1655.0,2772.0,2384.0,11081094.0,
1488.0,1654.0,2735.0,2356.0,11081097.0,
1490.0,1653.0,2702.0,2332.0,11081101.0,
1489.0,1654.0,2667.0,2309.0,11081105.0,
1488.0,1652.0,2628.0,2285.0,11081108.0,
1489.0,1654.0,2593.0,2260.0,11081112.0,
1490.0,1654.0,2559.0,2235.0,11081115.0,
1489.0,1652.0,2523.0,2212.0,11081119.0,
1490.0,1652.0,2492.0,2190.0,11081123.0,
1490.0,1654.0,2460.0,2165.0,11081126.0,
1489.0,1652.0,2428.0,2141.0,11081130.0,
1489.0,1654.0,2399.0,2120.0,11081134.0,
1490.0,1654.0,2370.0,2094.0,11081137.0,
1490.0,1654.0,2342.0,2072.0,11081141.0,
1489.0,1654.0,2318.0,2054.0,11081145.0,
1490.0,1654.0,2295.0,2028.0,11081148.0,
1489.0,1650.0,2271.0,2010.0,11081152.0,
1490.0,1655.0,2250.0,1993.0,11081155.0,
1490.0,1654.0,2234.0,1973.0,11081159.0,
1490.0,1654.0,2212.0,1954.0,11081163.0,
1495.0,1653.0,2193.0,1942.0,11081166.0,
1491.0,1653.0,2175.0,1923.0,11081170.0,
1491.0,1653.0,2158.0,1917.0,11081174.0,
1490.0,1653.0,2137.0,1902.0,11081177.0,
1490.0,1654.0,2126.0,1892.0,11081181.0,
1489.0,1654.0,2111.0,1884.0,11081185.0,
1490.0,1653.0,2095.0,1878.0,11081188.0,
1489.0,1653.0,2082.0,1869.0,11081192.0,
1493.0,1654.0,2069.0,1860.0,11081195.0,
1491.0,1654.0,2055.0,1856.0,11081199.0,
1490.0,1654.0,2046.0,1850.0,11081203.0,
1490.0,1654.0,2035.0,1846.0,11081206.0,
1491.0,1655.0,2030.0,1843.0,11081210.0,
1490.0,1654.0,2021.0,1841.0,11081214.0,
1485.0,1654.0,2013.0,1837.0,11081217.0,
1491.0,1655.0,2006.0,1833.0,11081221.0,
1490.0,1654.0,2003.0,1835.0,11081225.0,
1490.0,1655.0,1996.0,1832.0,11081228.0,
1490.0,1654.0,1992.0,1833.0,11081232.0,
1490.0,1656.0,1993.0,1836.0,11081235.0,
1490.0,1654.0,1993.0,1835.0,11081239.0,
1489.0,1655.0,1992.0,1841.0,11081243.0,
1491.0,1655.0,1992.0,1840.0,11081246.0,
1491.0,1655.0,1995.0,1841.0,11081250.0,
1490.0,1655.0,1993.0,1840.0,11081254.0,
1490.0,1654.0,2002.0,1842.0,11081257.0,
1490.0,1655.0,2009.0,1841.0,11081261.0,
1491.0,1655.0,2015.0,1842.0,11081265.0,
1490.0,1656.0,2024.0,1836.0,11081268.0,
1489.0,1657.0,2026.0,1838.0,11081272.0,
1490.0,1655.0,2037.0,1831.0,11081275.0,
1490.0,1655.0,2043.0,1825.0,11081279.0,
1490.0,1656.0,2051.0,1823.0,11081283.0,
1490.0,1656.0,2058.0,1818.0,11081286.0,
1491.0,1656.0,2063.0,1811.0,11081290.0,
1490.0,1659.0,2067.0,1812.0,11081294.0,
1489.0,1657.0,2078.0,1806.0,11081297.0,
1490.0,1656.0,2081.0,1800.0,11081301.0,
1489.0,1657.0,2086.0,1793.0,11081304.0,
1490.0,1656.0,2090.0,1785.0,11081308.0,
1491.0,1658.0,2092.0,1778.0,11081312.0,
1490.0,1656.0,2095.0,1771.0,11081315.0,
1490.0,1658.0,2098.0,1763.0,11081319.0,
1489.0,1657.0,2101.0,1754.0,11081323.0,
1490.0,1657.0,2101.0,1750.0,11081326.0,
1491.0,1657.0,2101.0,1735.0,11081330.0,
1490.0,1658.0,2095.0,1731.0,11081334.0,
1492.0,1658.0,2098.0,1719.0,11081337.0,
1491.0,1658.0,2098.0,1712.0,11081341.0,
1491.0,1662.0,2093.0,1699.0,11081344.0,
1491.0,1658.0,2090.0,1695.0,11081348.0,
1491.0,1658.0,2089.0,1686.0,11081352.0,
1487.0,1658.0,2082.0,1678.0,11081355.0,
1491.0,1657.0,2079.0,1667.0,11081359.0,
1491.0,1658.0,2069.0,1661.0,11081363.0,
1490.0,1656.0,2064.0,1651.0,11081366.0,
1492.0,1657.0,2057.0,1642.0,11081370.0,
1492.0,1657.0,2051.0,1633.0,11081374.0,
1490.0,1658.0,2042.0,1625.0,11081377.0,
1490.0,1661.0,2036.0,1618.0,11081381.0,
1490.0,1658.0,2027.0,1611.0,11081384.0,
1492.0,1658.0,2020.0,1603.0,11081388.0,
1491.0,1658.0,2010.0,1599.0,11081392.0,
1489.0,1657.0,2002.0,1593.0,11081395.0,
1492.0,1658.0,1991.0,1582.0,11081399.0,
1492.0,1658.0,1983.0,1577.0,11081403.0,
1491.0,1658.0,1974.0,1569.0,11081406.0,
1486.0,1658.0,1964.0,1564.0,11081410.0,
1490.0,1657.0,1954.0,1559.0,11081414.0,
1491.0,1658.0,1942.0,1552.0,11081417.0,
1491.0,1657.0,1933.0,1549.0,11081421.0,
1491.0,1658.0,1926.0,1550.0,11081424.0,
1491.0,1658.0,1917.0,1548.0,11081428.0,
1490.0,1659.0,1908.0,1544.0,11081432.0,
1491.0,1658.0,1903.0,1542.0,11081435.0,
1491.0,1656.0,1894.0,1537.0,11081439.0,
1491.0,1658.0,1887.0,1532.0,11081443.0,
1491.0,1658.0,1882.0,1528.0,11081446.0,
1491.0,1657.0,1874.0,1523.0,11081450.0,
1490.0,1658.0,1867.0,1527.0,11081454.0,
1491.0,1658.0,1862.0,1516.0,11081457.0,
1491.0,1657.0,1856.0,1516.0,11081461.0,
1492.0,1658.0,1855.0,1513.0,11081464.0,
1491.0,1658.0,1850.0,1511.0,11081468.0,
1492.0,1655.0,1846.0,1513.0,11081472.0,
1492.0,1659.0,1846.0,1509.0,11081475.0,
1491.0,1658.0,1843.0,1505.0,11081479.0,
1491.0,1657.0,1848.0,1502.0,11081483.0,
1490.0,1658.0,1844.0,1496.0,11081486.0,
1491.0,1658.0,1845.0,1497.0,11081490.0,
1490.0,1657.0,1845.0,1496.0,11081493.0,
1491.0,1658.0,1847.0,1488.0,11081497.0,
1490.0,1657.0,1847.0,1489.0,11081501.0,
1491.0,1658.0,1848.0,1488.0,11081504.0,
1491.0,1658.0,1849.0,1487.0,11081508.0,
1491.0,1657.0,1852.0,1486.0,11081512.0,
1491.0,1658.0,1853.0,1485.0,11081515.0,
1491.0,1654.0,1856.0,1481.0,11081519.0,
1489.0,1656.0,1859.0,1480.0,11081523.0,
1490.0,1657.0,1859.0,1478.0,11081526.0,
1491.0,1657.0,1862.0,1478.0,11081530.0,
1493.0,1657.0,1865.0,1476.0,11081533.0,
1493.0,1658.0,1868.0,1476.0,11081537.0,
1492.0,1656.0,1870.0,1476.0,11081541.0,
1490.0,1656.0,1870.0,1475.0,11081544.0,
1491.0,1657.0,1870.0,1475.0,11081548.0,
1491.0,1656.0,1871.0,1473.0,11081552.0,
1491.0,1656.0,1869.0,1474.0,11081555.0,
1490.0,1656.0,1867.0,1470.0,11081559.0,
1490.0,1656.0,1866.0,1469.0,11081563.0,
1490.0,1656.0,1866.0,1466.0,11081566.0,
1491.0,1655.0,1863.0,1463.0,11081570.0,
1488.0,1656.0,1860.0,1460.0,11081573.0,
1490.0,1655.0,1859.0,1459.0,11081577.0,
1491.0,1655.0,1854.0,1452.0,11081581.0,
1489.0,1655.0,1850.0,1452.0,11081584.0,
1489.0,1655.0,1849.0,1444.0,11081588.0,
1491.0,1655.0,1844.0,1446.0,11081592.0,
1491.0,1651.0,1842.0,1441.0,11081595.0,
1491.0,1656.0,1840.0,1438.0,11081599.0,
1491.0,1655.0,1840.0,1436.0,11081603.0,
1490.0,1655.0,1838.0,1434.0,11081606.0,
1491.0,1655.0,1837.0,1429.0,11081610.0,
1490.0,1654.0,1837.0,1426.0,11081613.0,
1491.0,1654.0,1836.0,1423.0,11081617.0,
1491.0,1654.0,1836.0,1422.0,11081621.0,
1491.0,1653.0,1836.0,1418.0,11081624.0,
1492.0,1649.0,1833.0,1414.0,11081628.0,
1491.0,1653.0,1834.0,1412.0,11081632.0,
1491.0,1653.0,1832.0,1409.0,11081635.0,
1485.0,1654.0,1833.0,1407.0,11081639.0,
1490.0,1654.0,1832.0,1410.0,11081643.0,
1490.0,1654.0,1833.0,1411.0,11081646.0,
1490.0,1653.0,1834.0,1408.0,11081650.0,
1490.0,1652.0,1832.0,1413.0,11081653.0,
1491.0,1652.0,1833.0,1420.0,11081657.0,
1490.0,1647.0,1835.0,1426.0,11081661.0,
1491.0,1653.0,1832.0,1440.0,11081664.0,
1490.0,1652.0,1836.0,1458.0,11081668.0,
1491.0,1651.0,1835.0,1475.0,11081672.0,
1494.0,1652.0,1835.0,1497.0,11081675.0,
1491.0,1652.0,1835.0,1527.0,11081679.0,
1490.0,1651.0,1836.0,1558.0,11081682.0,
1490.0,1651.0,1837.0,1601.0,11081686.0,
1490.0,1652.0,1840.0,1643.0,11081690.0,
1491.0,1651.0,1842.0,1694.0,11081693.0,
1489.0,1650.0,1847.0,1743.0,11081697.0,
1490.0,1651.0,1853.0,1804.0,11081701.0,
1490.0,1651.0,1860.0,1866.0,11081704.0,
1490.0,1651.0,1869.0,1929.0,11081708.0,
1491.0,1650.0,1881.0,1994.0,11081712.0,
1490.0,1651.0,1898.0,2066.0,11081715.0,
1492.0,1650.0,1914.0,2132.0,11081719.0,
1491.0,1650.0,1935.0,2206.0,11081722.0,
1486.0,1651.0,1960.0,2274.0,11081726.0,
1491.0,1648.0,1989.0,2339.0,11081730.0,
1491.0,1649.0,2016.0,2408.0,11081733.0,
1490.0,1650.0,2059.0,2469.0,11081737.0,
1491.0,1649.0,2096.0,2529.0,11081741.0,
1490.0,1649.0,2139.0,2586.0,11081744.0,
1491.0,1650.0,2182.0,2638.0,11081748.0,
1491.0,1649.0,2232.0,2686.0,11081752.0,
1491.0,1650.0,2281.0,2730.0,11081755.0,
1491.0,1648.0,2336.0,2769.0,11081759.0,
1490.0,1648.0,2389.0,2806.0,11081762.0,
1491.0,1645.0,2447.0,2836.0,11081766.0,
1490.0,1649.0,2506.0,2861.0,11081770.0,
1491.0,1648.0,2565.0,2881.0,11081773.0,
1491.0,1648.0,2621.0,2898.0,11081777.0,
1491.0,1649.0,2682.0,2909.0,11081781.0,
1491.0,1647.0,2737.0,2917.0,11081784.0,
1491.0,1648.0,2798.0,2920.0,11081788.0,
1491.0,1649.0,2845.0,2918.0,11081792.0,
1491.0,1648.0,2895.0,2914.0,11081795.0,
1492.0,1647.0,2941.0,2907.0,11081799.0,
1490.0,1648.0,2982.0,2898.0,11081802.0,
1490.0,1647.0,3020.0,2885.0,11081806.0,
1490.0,1647.0,3052.0,2867.0,11081810.0,
1492.0,1647.0,3082.0,2851.0,11081813.0,
1491.0,1648.0,3109.0,2832.0,11081817.0,
1491.0,1647.0,3129.0,2813.0,11081821.0,
1491.0,1648.0,3143.0,2793.0,11081824.0,
1491.0,1648.0,3154.0,2768.0,11081828.0,
1490.0,1647.0,3159.0,2745.0,11081832.0,
1491.0,1648.0,3163.0,2727.0,11081835.0,
1492.0,1648.0,3160.0,2696.0,11081839.0,
1491.0,1646.0,3153.0,2675.0,11081842.0,
1490.0,1647.0,3143.0,2652.0,11081846.0,
1490.0,1647.0,3126.0,2621.0,11081850.0,
1490.0,1648.0,3108.0,2601.0,11081853.0,
1492.0,1647.0,3088.0,2576.0,11081857.0,
1490.0,1646.0,3062.0,2551.0,11081861.0,
1490.0,1647.0,3036.0,2530.0,11081864.0,
1491.0,1646.0,3007.0,2510.0,11081868.0,
1491.0,1646.0,2975.0,2488.0,11081871.0,
1489.0,1645.0,2945.0,2467.0,11081875.0,
1490.0,1650.0,2909.0,2447.0,11081879.0,
1490.0,1648.0,2871.0,2428.0,11081882.0,
1490.0,1647.0,2837.0,2407.0,11081886.0,
1490.0,1645.0,2796.0,2382.0,11081890.0,
1488.0,1646.0,2758.0,2365.0,11081893.0,
1490.0,1646.0,2722.0,2338.0,11081897.0,
1491.0,1646.0,2689.0,2319.0,11081901.0,
1490.0,1646.0,2648.0,2298.0,11081904.0,
1490.0,1645.0,2611.0,2270.0,11081908.0,
1489.0,1646.0,2576.0,2247.0,11081911.0,
1489.0,1646.0,2543.0,2223.0,11081915.0,
1489.0,1644.0,2504.0,2199.0,11081919.0,
1489.0,1644.0,2483.0,2177.0,11081922.0,
1490.0,1645.0,2451.0,2153.0,11081926.0,
1488.0,1646.0,2420.0,2131.0,11081930.0,
1489.0,1645.0,2391.0,2111.0,11081933.0,
1488.0,1641.0,2363.0,2090.0,11081937.0,
1488.0,1646.0,2337.0,2068.0,11081941.0,
1488.0,1646.0,2310.0,2047.0,11081944.0,
1489.0,1647.0,2282.0,2028.0,11081948.0,
1488.0,1645.0,2264.0,2008.0,11081951.0,
1488.0,1644.0,2242.0,1988.0,11081955.0,
1490.0,1644.0,2221.0,1973.0,11081959.0,
1489.0,1645.0,2198.0,1952.0,11081962.0,
1488.0,1644.0,2177.0,1944.0,11081966.0,
1488.0,1645.0,2157.0,1933.0,11081970.0,
1488.0,1644.0,2137.0,1925.0,11081973.0,
1488.0,1645.0,2119.0,1907.0,11081977.0,
1489.0,1645.0,2103.0,1905.0,11081981.0,
1488.0,1644.0,2087.0,1907.0,11081984.0,
1482.0,1645.0,2070.0,1895.0,11081988.0,
1487.0,1643.0,2058.0,1889.0,11081991.0,
1486.0,1645.0,2044.0,1890.0,11081995.0,
1487.0,1644.0,2032.0,1888.0,11081999.0,
1488.0,1644.0,2021.0,1887.0,11082002.0,
1487.0,1645.0,2010.0,1890.0,11082006.0,
1486.0,1645.0,2000.0,1890.0,11082010.0,
1486.0,1639.0,1992.0,1896.0,11082013.0,
1487.0,1641.0,1986.0,1898.0,11082017.0,
1486.0,1642.0,1979.0,1904.0,11082021.0,
1486.0,1643.0,1975.0,1912.0,11082024.0,
1487.0,1645.0,1972.0,1915.0,11082028.0,
1486.0,1643.0,1969.0,1922.0,11082031.0,
1486.0,1642.0,1971.0,1928.0,11082035.0,
1486.0,1643.0,1971.0,1932.0,11082039.0,
1485.0,1646.0,1972.0,1940.0,11082042.0,
1486.0,1644.0,1973.0,1942.0,11082046.0,
1486.0,1644.0,1977.0,1946.0,11082050.0,
1485.0,1644.0,1979.0,1947.0,11082053.0,
1485.0,1643.0,1984.0,1951.0,11082057.0,
1485.0,1643.0,1989.0,1952.0,11082061.0,
1480.0,1644.0,1992.0,1955.0,11082064.0,
1484.0,1643.0,1996.0,1952.0,11082068.0,
1485.0,1643.0,2004.0,1948.0,11082071.0,
1485.0,1644.0,2013.0,1950.0,11082075.0,
1485.0,1644.0,2019.0,1940.0,11082079.0,
1485.0,1644.0,2028.0,1936.0,11082082.0,
1484.0,1643.0,2031.0,1932.0,11082086.0,
1485.0,1644.0,2038.0,1928.0,11082090.0,
1484.0,1643.0,2044.0,1923.0,11082093.0,
1484.0,1644.0,2046.0,1912.0,11082097.0,
1484.0,1642.0,2057.0,1905.0,11082100.0,
1484.0,1645.0,2057.0,1902.0,11082104.0,
1483.0,1643.0,2054.0,1888.0,11082108.0,
1485.0,1643.0,2059.0,1878.0,11082111.0,
1483.0,1644.0,2061.0,1863.0,11082115.0,
1483.0,1643.0,2062.0,1860.0,11082119.0,
1484.0,1642.0,2064.0,1845.0,11082122.0,
1482.0,1642.0,2060.0,1836.0,11082126.0,
1483.0,1644.0,2057.0,1821.0,11082130.0,
1483.0,1643.0,2054.0,1814.0,11082133.0,
1483.0,1642.0,2049.0,1803.0,11082137.0,
1483.0,1642.0,2043.0,1793.0,11082140.0,
1483.0,1642.0,2038.0,1786.0,11082144.0,
1483.0,1642.0,2031.0,1774.0,11082148.0,
1483.0,1642.0,2026.0,1765.0,11082151.0,
1483.0,1644.0,2019.0,1754.0,11082155.0,
1482.0,1643.0,2012.0,1743.0,11082159.0,
1483.0,1648.0,2006.0,1731.0,11082162.0,
1483.0,1641.0,2000.0,1719.0,11082166.0,
1481.0,1642.0,1993.0,1711.0,11082170.0,
1482.0,1644.0,1987.0,1703.0,11082173.0,
1482.0,1643.0,1982.0,1691.0,11082177.0,
1482.0,1642.0,1974.0,1679.0,11082180.0,
1481.0,1642.0,1967.0,1672.0,11082184.0,
1482.0,1642.0,1959.0,1661.0,11082188.0,
1482.0,1642.0,1952.0,1653.0,11082191.0,
1481.0,1643.0,1945.0,1645.0,11082195.0,
1481.0,1643.0,1937.0,1637.0,11082199.0,
1480.0,1642.0,1930.0,1630.0,11082202.0,
1481.0,1641.0,1922.0,1625.0,11082206.0,
1481.0,1643.0,1915.0,1621.0,11082210.0,
1481.0,1642.0,1908.0,1620.0,11082213.0,
1481.0,1642.0,1904.0,1613.0,11082217.0,
1480.0,1641.0,1897.0,1611.0,11082220.0,
1480.0,1642.0,1890.0,1608.0,11082224.0,
1480.0,1643.0,1884.0,1605.0,11082228.0,
1479.0,1642.0,1877.0,1602.0,11082231.0,
1479.0,1643.0,1870.0,1601.0,11082235.0,
1478.0,1643.0,1866.0,1595.0,11082239.0,
1479.0,1644.0,1862.0,1592.0,11082242.0,
1478.0,1640.0,1857.0,1587.0,11082246.0,
1479.0,1642.0,1852.0,1583.0,11082250.0,
1482.0,1642.0,1848.0,1579.0,11082253.0,
1479.0,1643.0,1842.0,1576.0,11082257.0,
1478.0,1641.0,1842.0,1573.0,11082260.0,
1479.0,1642.0,1836.0,1568.0,11082264.0,
1479.0,1642.0,1833.0,1561.0,11082268.0,
1478.0,1641.0,1829.0,1560.0,11082271.0,
1478.0,1642.0,1826.0,1554.0,11082275.0,
1478.0,1642.0,1826.0,1549.0,11082279.0,
1477.0,1642.0,1823.0,1545.0,11082282.0,
1480.0,1640.0,1820.0,1538.0,11082286.0,
1479.0,1641.0,1817.0,1535.0,11082289.0,
1477.0,1642.0,1817.0,1531.0,11082293.0,
1477.0,1641.0,1815.0,1534.0,11082297.0,
1477.0,1642.0,1813.0,1527.0,11082300.0,
1478.0,1641.0,1810.0,1527.0,11082304.0,
1478.0,1642.0,1809.0,1525.0,11082308.0,
1478.0,1642.0,1804.0,1528.0,11082311.0,
1477.0,1640.0,1803.0,1527.0,11082315.0,
1476.0,1641.0,1801.0,1529.0,11082319.0,
1476.0,1641.0,1800.0,1527.0,11082322.0,
1476.0,1642.0,1798.0,1531.0,11082326.0,
1477.0,1640.0,1799.0,1531.0,11082329.0,
1477.0,1642.0,1798.0,1531.0,11082333.0,
1478.0,1641.0,1798.0,1533.0,11082337.0,
1476.0,1641.0,1799.0,1537.0,11082340.0,
1478.0,1643.0,1793.0,1539.0,11082344.0,
1477.0,1641.0,1796.0,1545.0,11082348.0,
1478.0,1641.0,1798.0,1549.0,11082351.0,
1478.0,1642.0,1799.0,1555.0,11082355.0,
1477.0,1642.0,1800.0,1557.0,11082359.0,
1476.0,1644.0,1798.0,1561.0,11082362.0,
1477.0,1641.0,1798.0,1566.0,11082366.0,
1476.0,1641.0,1799.0,1571.0,11082369.0,
1476.0,1642.0,1800.0,1573.0,11082373.0,
1477.0,1641.0,1795.0,1581.0,11082377.0,
1476.0,1644.0,1797.0,1587.0,11082380.0,
1475.0,1641.0,1798.0,1600.0,11082384.0,
1475.0,1643.0,1795.0,1612.0,11082388.0,
1476.0,1642.0,1798.0,1633.0,11082391.0,
1481.0,1644.0,1798.0,1654.0,11082395.0,
1475.0,1641.0,1798.0,1681.0,11082399.0,
1474.0,1641.0,1799.0,1709.0,11082402.0,
1474.0,1642.0,1798.0,1744.0,11082406.0,
1475.0,1642.0,1802.0,1781.0,11082409.0,
1474.0,1642.0,1803.0,1829.0,11082413.0,
1476.0,1643.0,1805.0,1876.0,11082417.0,
1475.0,1642.0,1804.0,1930.0,11082420.0,
1475.0,1643.0,1815.0,1991.0,11082424.0,
1475.0,1642.0,1823.0,2046.0,11082428.0,
1475.0,1642.0,1832.0,2115.0,11082431.0,
1475.0,1643.0,1844.0,2178.0,11082435.0,
1474.0,1644.0,1860.0,2244.0,11082439.0,
1474.0,1641.0,1879.0,2312.0,11082442.0,
1474.0,1643.0,1904.0,2381.0,11082446.0,
1474.0,1641.0,1930.0,2445.0,11082449.0,
1477.0,1643.0,1960.0,2511.0,11082453.0,
1475.0,1640.0,1998.0,2576.0,11082457.0,
1476.0,1642.0,2035.0,2635.0,11082460.0,
1475.0,1642.0,2080.0,2695.0,11082464.0,
1474.0,1642.0,2129.0,2751.0,11082468.0,
1474.0,1643.0,2183.0,2799.0,11082471.0,
1473.0,1639.0,2236.0,2849.0,11082475.0,
1474.0,1644.0,2292.0,2896.0,11082478.0,
1474.0,1641.0,2352.0,2939.0,11082482.0,
1474.0,1642.0,2415.0,2977.0,11082486.0,
1475.0,1643.0,2481.0,3009.0,11082489.0,
1475.0,1641.0,2546.0,3042.0,11082493.0,
1474.0,1641.0,2616.0,3069.0,11082497.0,
1475.0,1643.0,2678.0,3090.0,11082500.0,
1475.0,1642.0,2742.0,3109.0,11082504.0,
1474.0,1642.0,2807.0,3119.0,11082508.0,
1474.0,1642.0,2868.0,3129.0,11082511.0,
1472.0,1641.0,2929.0,3133.0,11082515.0,
1474.0,1641.0,2985.0,3131.0,11082518.0,
1474.0,1641.0,3039.0,3132.0,11082522.0,
1474.0,1642.0,3089.0,3127.0,11082526.0,
1475.0,1642.0,3136.0,3125.0,11082529.0,
1474.0,1641.0,3178.0,3117.0,11082533.0,
1474.0,1641.0,3212.0,3111.0,11082537.0,
1473.0,1642.0,3244.0,3096.0,11082540.0,
1474.0,1641.0,3274.0,3086.0,11082544.0,
1474.0,1641.0,3297.0,3072.0,11082548.0,
1474.0,1640.0,3310.0,3056.0,11082551.0,
1474.0,1640.0,3322.0,3033.0,11082555.0,
1473.0,1639.0,3325.0,3018.0,11082558.0,
1474.0,1642.0,3326.0,2995.0,11082562.0,
1473.0,1639.0,3323.0,2976.0,11082566.0,
1474.0,1640.0,3315.0,2954.0,11082569.0,
1475.0,1641.0,3301.0,2932.0,11082573.0,
1473.0,1640.0,3283.0,2912.0,11082577.0,
1474.0,1642.0,3264.0,2892.0,11082580.0,
1474.0,1641.0,3240.0,2872.0,11082584.0,
1474.0,1644.0,3216.0,2852.0,11082588.0,
1474.0,1641.0,3188.0,2842.0,11082591.0,
1473.0,1640.0,3156.0,2820.0,11082595.0,
1472.0,1640.0,3125.0,2803.0,11082598.0,
1473.0,1642.0,3090.0,2788.0,11082602.0,
1472.0,1640.0,3058.0,2771.0,11082606.0,
1474.0,1641.0,3020.0,2752.0,11082609.0,
1474.0,1640.0,2983.0,2737.0,11082613.0,
1473.0,1641.0,2948.0,2722.0,11082617.0,
1472.0,1640.0,2911.0,2706.0,11082620.0,
1473.0,1641.0,2872.0,2691.0,11082624.0,
1473.0,1641.0,2838.0,2671.0,11082628.0,
1472.0,1641.0,2803.0,2652.0,11082631.0,
1473.0,1640.0,2767.0,2634.0,11082635.0,
1472.0,1645.0,2732.0,2610.0,11082638.0,
1473.0,1641.0,2698.0,2590.0,11082642.0,
1472.0,1640.0,2666.0,2565.0,11082646.0,
1472.0,1641.0,2636.0,2544.0,11082649.0,
1472.0,1640.0,2606.0,2523.0,11082653.0,
1472.0,1642.0,2574.0,2496.0,11082657.0,
1471.0,1639.0,2546.0,2473.0,11082660.0,
1472.0,1641.0,2517.0,2444.0,11082664.0,
1472.0,1641.0,2490.0,2413.0,11082668.0,
1472.0,1642.0,2465.0,2390.0,11082671.0,
1477.0,1639.0,2442.0,2361.0,11082675.0,
1472.0,1640.0,2415.0,2338.0,11082678.0,
1472.0,1639.0,2398.0,2313.0,11082682.0,
1470.0,1639.0,2368.0,2289.0,11082686.0,
1471.0,1641.0,2346.0,2263.0,11082689.0,
1471.0,1639.0,2324.0,2242.0,11082693.0,
1472.0,1641.0,2299.0,2219.0,11082697.0,
1471.0,1639.0,2276.0,2200.0,11082700.0,
1471.0,1641.0,2255.0,2181.0,11082704.0,
1468.0,1643.0,2232.0,2162.0,11082707.0,
1471.0,1639.0,2209.0,2146.0,11082711.0,
1471.0,1634.0,2189.0,2130.0,11082715.0,
1471.0,1640.0,2165.0,2119.0,11082718.0,
1471.0,1639.0,2145.0,2106.0,11082722.0,
1470.0,1639.0,2125.0,2090.0,11082726.0,
1470.0,1640.0,2108.0,2076.0,11082729.0,
1471.0,1639.0,2090.0,2067.0,11082733.0,
1471.0,1638.0,2075.0,2055.0,11082737.0,
1470.0,1639.0,2059.0,2046.0,11082740.0,
1471.0,1640.0,2045.0,2038.0,11082744.0,
1470.0,1640.0,2032.0,2033.0,11082747.0,
1470.0,1639.0,2019.0,2029.0,11082751.0,
1470.0,1637.0,2008.0,2021.0,11082755.0,
1470.0,1639.0,2001.0,2014.0,11082758.0,
1470.0,1640.0,1992.0,2017.0,11082762.0,
1472.0,1638.0,1988.0,2007.0,11082766.0,
1470.0,1639.0,1982.0,2003.0,11082769.0,
1469.0,1639.0,1976.0,1999.0,11082773.0,
1470.0,1639.0,1972.0,1993.0,11082777.0,
1469.0,1638.0,1972.0,1991.0,11082780.0,
1469.0,1639.0,1970.0,1987.0,11082784.0,
1469.0,1638.0,1969.0,1983.0,11082787.0,
1470.0,1639.0,1969.0,1979.0,11082791.0,
1470.0,1638.0,1970.0,1978.0,11082795.0,
1470.0,1639.0,1970.0,1970.0,11082798.0,
1469.0,1639.0,1973.0,1969.0,11082802.0,
1469.0,1639.0,1976.0,1963.0,11082806.0,
1469.0,1639.0,1980.0,1958.0,11082809.0,
1469.0,1638.0,1979.0,1954.0,11082813.0,
1465.0,1640.0,1984.0,1946.0,11082817.0,
1470.0,1639.0,1985.0,1938.0,11082820.0,
1469.0,1638.0,1987.0,1929.0,11082824.0,
1469.0,1638.0,1991.0,1918.0,11082827.0,
1469.0,1638.0,1994.0,1906.0,11082831.0,
1471.0,1637.0,1999.0,1895.0,11082835.0,
1469.0,1638.0,2001.0,1885.0,11082838.0,
1463.0,1638.0,2001.0,1875.0,11082842.0,
1469.0,1640.0,2003.0,1869.0,11082846.0,
1469.0,1638.0,2004.0,1853.0,11082849.0,
1469.0,1639.0,2001.0,1847.0,11082853.0,
1468.0,1639.0,2002.0,1832.0,11082857.0,
1469.0,1638.0,2001.0,1821.0,11082860.0,
1469.0,1638.0,1999.0,1813.0,11082864.0,
1469.0,1638.0,1996.0,1801.0,11082867.0,
1469.0,1638.0,1994.0,1791.0,11082871.0,
1469.0,1638.0,1990.0,1783.0,11082875.0,
1469.0,1639.0,1986.0,1772.0,11082878.0,
1469.0,1638.0,1982.0,1760.0,11082882.0,
1468.0,1637.0,1979.0,1748.0,11082886.0,
1469.0,1639.0,1970.0,1735.0,11082889.0,
1469.0,1639.0,1966.0,1725.0,11082893.0,
1469.0,1638.0,1958.0,1711.0,11082897.0,
1467.0,1638.0,1951.0,1698.0,11082900.0,
1468.0,1638.0,1941.0,1686.0,11082904.0,
1469.0,1638.0,1933.0,1672.0,11082907.0,
1469.0,1638.0,1925.0,1658.0,11082911.0,
1468.0,1638.0,1916.0,1648.0,11082915.0,
1468.0,1637.0,1906.0,1640.0,11082918.0,
1468.0,1638.0,1894.0,1629.0,11082922.0,
1467.0,1638.0,1884.0,1626.0,11082926.0,
1468.0,1639.0,1874.0,1617.0,11082929.0,
1469.0,1639.0,1864.0,1612.0,11082933.0,
1469.0,1638.0,1852.0,1608.0,11082936.0,
1469.0,1639.0,1844.0,1602.0,11082940.0,
1468.0,1644.0,1832.0,1601.0,11082944.0,
1468.0,1639.0,1823.0,1593.0,11082947.0,
1468.0,1639.0,1818.0,1594.0,11082951.0,
1470.0,1639.0,1806.0,1588.0,11082955.0,
1469.0,1638.0,1799.0,1586.0,11082958.0,
1468.0,1638.0,1789.0,1587.0,11082962.0,
1468.0,1636.0,1780.0,1589.0,11082966.0,
1468.0,1638.0,1773.0,1585.0,11082969.0,
1468.0,1637.0,1766.0,1586.0,11082973.0,
1468.0,1638.0,1762.0,1583.0,11082976.0,
1473.0,1639.0,1757.0,1581.0,11082980.0,
1469.0,1639.0,1753.0,1583.0,11082984.0,
1468.0,1637.0,1747.0,1583.0,11082987.0,
1468.0,1637.0,1743.0,1586.0,11082991.0,
1471.0,1637.0,1742.0,1584.0,11082995.0,
1468.0,1639.0,1738.0,1585.0,11082998.0,
1468.0,1637.0,1736.0,1588.0,11083002.0,
1467.0,1637.0,1735.0,1592.0,11083006.0,
1468.0,1638.0,1736.0,1593.0,11083009.0,
1467.0,1638.0,1735.0,1599.0,11083013.0,
1468.0,1637.0,1734.0,1601.0,11083016.0,
1468.0,1637.0,1734.0,1604.0,11083020.0,
1468.0,1637.0,1734.0,1609.0,11083024.0,
1468.0,1637.0,1733.0,1608.0,11083027.0,
1468.0,1637.0,1738.0,1611.0,11083031.0,
1468.0,1637.0,1738.0,1614.0,11083035.0,
1467.0,1638.0,1739.0,1618.0,11083038.0,
1469.0,1637.0,1740.0,1622.0,11083042.0,
1475.0,1638.0,1745.0,1623.0,11083046.0,
1468.0,1637.0,1748.0,1620.0,11083049.0,
1468.0,1637.0,1751.0,1624.0,11083053.0,
1468.0,1637.0,1754.0,1622.0,11083056.0,
1469.0,1639.0,1757.0,1625.0,11083060.0,
1464.0,1637.0,1758.0,1625.0,11083064.0,
1468.0,1639.0,1760.0,1626.0,11083067.0,
1465.0,1638.0,1762.0,1620.0,11083071.0,
1468.0,1638.0,1764.0,1620.0,11083075.0,
1467.0,1635.0,1758.0,1612.0,11083078.0,
1468.0,1638.0,1763.0,1610.0,11083082.0,
1468.0,1638.0,1762.0,1604.0,11083086.0,
1468.0,1637.0,1762.0,1601.0,11083089.0,
1473.0,1638.0,1764.0,1599.0,11083093.0,
1465.0,1638.0,1766.0,1596.0,11083096.0,
1468.0,1639.0,1766.0,1590.0,11083100.0,
1468.0,1639.0,1765.0,1588.0,11083104.0,
1468.0,1637.0,1764.0,1584.0,11083107.0,
1468.0,1638.0,1764.0,1578.0,11083111.0,
1468.0,1638.0,1763.0,1579.0,11083115.0,
1468.0,1638.0,1761.0,1575.0,11083118.0,
1468.0,1637.0,1763.0,1570.0,11083122.0,
1468.0,1641.0,1759.0,1567.0,11083125.0,
1467.0,1638.0,1758.0,1565.0,11083129.0,
1467.0,1636.0,1755.0,1563.0,11083133.0,
1468.0,1636.0,1749.0,1561.0,11083136.0,
1468.0,1637.0,1747.0,1555.0,11083140.0,
1468.0,1637.0,1741.0,1554.0,11083144.0,
1468.0,1638.0,1735.0,1546.0,11083147.0,
1468.0,1637.0,1730.0,1544.0,11083151.0,
1467.0,1636.0,1726.0,1543.0,11083155.0,
1468.0,1632.0,1720.0,1543.0,11083158.0,
1467.0,1638.0,1719.0,1539.0,11083162.0,
1467.0,1636.0,1716.0,1540.0,11083165.0,
1467.0,1637.0,1715.0,1544.0,11083169.0,
1467.0,1637.0,1711.0,1546.0,11083173.0,
1467.0,1637.0,1712.0,1554.0,11083176.0,
1467.0,1637.0,1702.0,1568.0,11083180.0,
1468.0,1638.0,1706.0,1587.0,11083184.0,
1467.0,1638.0,1697.0,1609.0,11083187.0,
1467.0,1637.0,1696.0,1640.0,11083191.0,
