EDA,Resp,PPG Finger,PPG Ear,arduino_ts,event_code
2006.0,1555.0,1829.0,2000.0,13177061.0,
2005.0,1554.0,1835.0,2037.0,13177065.0,
2006.0,1554.0,1854.0,2074.0,13177068.0,
2005.0,1554.0,1861.0,2110.0,13177072.0,
2006.0,1555.0,1879.0,2158.0,13177075.0,
2006.0,1554.0,1895.0,2202.0,13177079.0,
2007.0,1554.0,1921.0,2251.0,13177083.0,
2006.0,1554.0,1948.0,2299.0,13177086.0,
2006.0,1554.0,1983.0,2347.0,13177090.0,
2009.0,1556.0,2021.0,2396.0,13177094.0,
2007.0,1559.0,2058.0,2447.0,13177097.0,
2007.0,1554.0,2098.0,2496.0,13177101.0,
2006.0,1556.0,2145.0,2542.0,13177104.0,
2006.0,1555.0,2193.0,2585.0,13177108.0,
2006.0,1554.0,2240.0,2628.0,13177112.0,
2007.0,1556.0,2298.0,2669.0,13177115.0,
2007.0,1555.0,2352.0,2703.0,13177119.0,
2007.0,1554.0,2406.0,2739.0,13177123.0,
2006.0,1554.0,2463.0,2772.0,13177126.0,
2013.0,1555.0,2514.0,2797.0,13177130.0,
2007.0,1554.0,2570.0,2826.0,13177134.0,
2006.0,1554.0,2623.0,2851.0,13177137.0,
2007.0,1555.0,2671.0,2876.0,13177141.0,
2008.0,1555.0,2722.0,2898.0,13177144.0,
2008.0,1554.0,2765.0,2917.0,13177148.0,
2008.0,1554.0,2807.0,2936.0,13177152.0,
2008.0,1554.0,2843.0,2950.0,13177155.0,
2008.0,1554.0,2877.0,2966.0,13177159.0,
2008.0,1554.0,2908.0,2979.0,13177163.0,
2007.0,1555.0,2934.0,2988.0,13177166.0,
2007.0,1555.0,2958.0,2997.0,13177170.0,
2008.0,1549.0,2976.0,3007.0,13177174.0,
2007.0,1553.0,2993.0,3007.0,13177177.0,
2007.0,1555.0,3003.0,3012.0,13177181.0,
2007.0,1557.0,3008.0,3015.0,13177184.0,
2008.0,1552.0,3014.0,3012.0,13177188.0,
2008.0,1554.0,3012.0,3010.0,13177192.0,
2008.0,1554.0,3008.0,3007.0,13177195.0,
2008.0,1553.0,2999.0,3002.0,13177199.0,
2008.0,1554.0,2988.0,2997.0,13177203.0,
2007.0,1553.0,2975.0,2993.0,13177206.0,
2008.0,1549.0,2959.0,2988.0,13177210.0,
2006.0,1554.0,2939.0,2984.0,13177214.0,
2008.0,1553.0,2918.0,2977.0,13177217.0,
2008.0,1553.0,2895.0,2973.0,13177221.0,
2008.0,1553.0,2869.0,2968.0,13177224.0,
2008.0,1553.0,2845.0,2961.0,13177228.0,
2009.0,1553.0,2818.0,2953.0,13177232.0,
2007.0,1553.0,2789.0,2943.0,13177235.0,
2008.0,1555.0,2758.0,2939.0,13177239.0,
2008.0,1553.0,2729.0,2932.0,13177243.0,
2008.0,1551.0,2704.0,2923.0,13177246.0,
2008.0,1554.0,2677.0,2910.0,13177250.0,
2009.0,1553.0,2651.0,2903.0,13177254.0,
2008.0,1553.0,2628.0,2886.0,13177257.0,
2008.0,1552.0,2602.0,2876.0,13177261.0,
2008.0,1553.0,2575.0,2863.0,13177264.0,
2007.0,1554.0,2550.0,2849.0,13177268.0,
2008.0,1551.0,2525.0,2835.0,13177272.0,
2008.0,1552.0,2501.0,2824.0,13177275.0,
2008.0,1552.0,2478.0,2808.0,13177279.0,
2007.0,1552.0,2453.0,2799.0,13177283.0,
2008.0,1553.0,2435.0,2783.0,13177286.0,
2008.0,1552.0,2414.0,2766.0,13177290.0,
2009.0,1555.0,2394.0,2754.0,13177293.0,
2009.0,1552.0,2375.0,2737.0,13177297.0,
2009.0,1550.0,2355.0,2720.0,13177301.0,
2007.0,1553.0,2340.0,2708.0,13177304.0,
2007.0,1551.0,2320.0,2685.0,13177308.0,
2008.0,1552.0,2301.0,2668.0,13177312.0,
2012.0,1551.0,2284.0,2649.0,13177315.0,
2009.0,1551.0,2266.0,2624.0,13177319.0,
2008.0,1551.0,2249.0,2615.0,13177323.0,
2008.0,1546.0,2230.0,2597.0,13177326.0,
2007.0,1551.0,2215.0,2575.0,13177330.0,
2009.0,1551.0,2198.0,2560.0,13177333.0,
2008.0,1551.0,2182.0,2540.0,13177337.0,
2008.0,1552.0,2164.0,2525.0,13177341.0,
2008.0,1553.0,2149.0,2509.0,13177344.0,
2008.0,1552.0,2134.0,2491.0,13177348.0,
2009.0,1551.0,2117.0,2472.0,13177352.0,
2008.0,1552.0,2102.0,2462.0,13177355.0,
2007.0,1551.0,2089.0,2448.0,13177359.0,
2010.0,1552.0,2073.0,2436.0,13177363.0,
2008.0,1552.0,2062.0,2428.0,13177366.0,
2008.0,1551.0,2052.0,2419.0,13177370.0,
2008.0,1553.0,2036.0,2411.0,13177373.0,
2008.0,1552.0,2024.0,2400.0,13177377.0,
2007.0,1551.0,2012.0,2390.0,13177381.0,
2008.0,1551.0,2002.0,2384.0,13177384.0,
2008.0,1551.0,1993.0,2370.0,13177388.0,
2008.0,1552.0,1987.0,2365.0,13177392.0,
2008.0,1552.0,1979.0,2355.0,13177395.0,
2008.0,1552.0,1975.0,2348.0,13177399.0,
2008.0,1552.0,1970.0,2343.0,13177403.0,
2008.0,1554.0,1964.0,2337.0,13177406.0,
2008.0,1552.0,1963.0,2329.0,13177410.0,
2002.0,1552.0,1963.0,2330.0,13177413.0,
2006.0,1552.0,1965.0,2325.0,13177417.0,
2008.0,1552.0,1963.0,2321.0,13177421.0,
2009.0,1552.0,1963.0,2316.0,13177424.0,
2008.0,1552.0,1965.0,2311.0,13177428.0,
2003.0,1551.0,1967.0,2301.0,13177432.0,
2008.0,1550.0,1970.0,2298.0,13177435.0,
2007.0,1551.0,1973.0,2290.0,13177439.0,
2007.0,1553.0,1978.0,2290.0,13177443.0,
2007.0,1552.0,1982.0,2283.0,13177446.0,
2008.0,1557.0,1984.0,2278.0,13177450.0,
2008.0,1552.0,1986.0,2268.0,13177453.0,
2008.0,1554.0,1990.0,2259.0,13177457.0,
2010.0,1553.0,1995.0,2247.0,13177461.0,
2008.0,1552.0,1997.0,2242.0,13177464.0,
2007.0,1552.0,2003.0,2227.0,13177468.0,
2008.0,1553.0,2004.0,2223.0,13177472.0,
2008.0,1552.0,2006.0,2212.0,13177475.0,
2007.0,1553.0,2007.0,2205.0,13177479.0,
2008.0,1553.0,2010.0,2194.0,13177483.0,
2003.0,1555.0,2005.0,2187.0,13177486.0,
2007.0,1556.0,2004.0,2174.0,13177490.0,
2008.0,1553.0,2005.0,2167.0,13177493.0,
2008.0,1555.0,2001.0,2162.0,13177497.0,
2009.0,1554.0,1999.0,2150.0,13177501.0,
2007.0,1553.0,2000.0,2141.0,13177504.0,
2008.0,1555.0,1995.0,2129.0,13177508.0,
2009.0,1554.0,1990.0,2120.0,13177512.0,
2007.0,1553.0,1983.0,2111.0,13177515.0,
2008.0,1555.0,1978.0,2098.0,13177519.0,
2007.0,1554.0,1968.0,2087.0,13177522.0,
2007.0,1554.0,1961.0,2077.0,13177526.0,
2007.0,1555.0,1951.0,2065.0,13177530.0,
2008.0,1555.0,1945.0,2061.0,13177533.0,
2008.0,1556.0,1940.0,2052.0,13177537.0,
2007.0,1554.0,1927.0,2045.0,13177541.0,
2008.0,1554.0,1919.0,2036.0,13177544.0,
2007.0,1556.0,1909.0,2028.0,13177548.0,
2008.0,1556.0,1899.0,2019.0,13177552.0,
2008.0,1549.0,1893.0,2009.0,13177555.0,
2007.0,1555.0,1884.0,2006.0,13177559.0,
2008.0,1556.0,1873.0,2004.0,13177562.0,
2008.0,1555.0,1865.0,1993.0,13177566.0,
2008.0,1556.0,1858.0,1985.0,13177570.0,
2007.0,1556.0,1851.0,1986.0,13177573.0,
2008.0,1556.0,1844.0,1978.0,13177577.0,
2008.0,1555.0,1835.0,1970.0,13177581.0,
2008.0,1558.0,1830.0,1964.0,13177584.0,
2008.0,1556.0,1820.0,1960.0,13177588.0,
2008.0,1556.0,1814.0,1956.0,13177592.0,
2007.0,1557.0,1810.0,1951.0,13177595.0,
2007.0,1556.0,1803.0,1947.0,13177599.0,
2007.0,1556.0,1795.0,1945.0,13177602.0,
2006.0,1557.0,1791.0,1939.0,13177606.0,
2006.0,1557.0,1785.0,1937.0,13177610.0,
2008.0,1557.0,1781.0,1935.0,13177613.0,
2007.0,1557.0,1778.0,1933.0,13177617.0,
2007.0,1557.0,1776.0,1932.0,13177621.0,
2011.0,1557.0,1775.0,1930.0,13177624.0,
2007.0,1558.0,1767.0,1930.0,13177628.0,
2007.0,1557.0,1771.0,1929.0,13177632.0,
2006.0,1557.0,1763.0,1927.0,13177635.0,
2007.0,1558.0,1768.0,1928.0,13177639.0,
2007.0,1558.0,1768.0,1924.0,13177642.0,
2007.0,1558.0,1768.0,1921.0,13177646.0,
2007.0,1558.0,1769.0,1922.0,13177650.0,
2008.0,1556.0,1773.0,1917.0,13177653.0,
2007.0,1558.0,1773.0,1916.0,13177657.0,
2008.0,1558.0,1775.0,1911.0,13177661.0,
2007.0,1558.0,1777.0,1910.0,13177664.0,
2007.0,1559.0,1781.0,1908.0,13177668.0,
2007.0,1558.0,1783.0,1906.0,13177672.0,
2008.0,1558.0,1785.0,1905.0,13177675.0,
2007.0,1557.0,1790.0,1905.0,13177679.0,
2007.0,1559.0,1795.0,1899.0,13177682.0,
2007.0,1557.0,1796.0,1894.0,13177686.0,
2007.0,1559.0,1800.0,1890.0,13177690.0,
2008.0,1556.0,1800.0,1879.0,13177693.0,
2007.0,1559.0,1802.0,1883.0,13177697.0,
2008.0,1559.0,1805.0,1880.0,13177701.0,
2007.0,1560.0,1806.0,1874.0,13177704.0,
2006.0,1559.0,1806.0,1875.0,13177708.0,
2007.0,1558.0,1805.0,1873.0,13177711.0,
2008.0,1562.0,1808.0,1870.0,13177715.0,
2007.0,1559.0,1808.0,1858.0,13177719.0,
2007.0,1559.0,1810.0,1861.0,13177722.0,
2007.0,1562.0,1811.0,1853.0,13177726.0,
2007.0,1561.0,1812.0,1850.0,13177730.0,
2008.0,1561.0,1814.0,1847.0,13177733.0,
2008.0,1560.0,1807.0,1845.0,13177737.0,
2008.0,1560.0,1815.0,1838.0,13177741.0,
2007.0,1560.0,1815.0,1839.0,13177744.0,
2006.0,1559.0,1814.0,1834.0,13177748.0,
2006.0,1557.0,1811.0,1832.0,13177751.0,
2006.0,1561.0,1810.0,1826.0,13177755.0,
2007.0,1563.0,1810.0,1823.0,13177759.0,
2007.0,1559.0,1809.0,1817.0,13177762.0,
2008.0,1561.0,1809.0,1816.0,13177766.0,
2008.0,1559.0,1807.0,1808.0,13177770.0,
2008.0,1560.0,1809.0,1808.0,13177773.0,
2006.0,1560.0,1810.0,1806.0,13177777.0,
2006.0,1559.0,1806.0,1803.0,13177781.0,
2007.0,1560.0,1804.0,1802.0,13177784.0,
2008.0,1561.0,1802.0,1800.0,13177788.0,
2008.0,1562.0,1803.0,1798.0,13177791.0,
2007.0,1562.0,1802.0,1800.0,13177795.0,
2009.0,1562.0,1803.0,1798.0,13177799.0,
2007.0,1562.0,1802.0,1798.0,13177802.0,
2007.0,1561.0,1802.0,1793.0,13177806.0,
2008.0,1561.0,1802.0,1793.0,13177810.0,
2007.0,1561.0,1801.0,1788.0,13177813.0,
2007.0,1560.0,1801.0,1785.0,13177817.0,
2007.0,1561.0,1805.0,1784.0,13177821.0,
2007.0,1560.0,1804.0,1784.0,13177824.0,
2007.0,1561.0,1803.0,1777.0,13177828.0,
2006.0,1561.0,1807.0,1773.0,13177831.0,
2008.0,1563.0,1807.0,1774.0,13177835.0,
2007.0,1562.0,1805.0,1770.0,13177839.0,
2007.0,1562.0,1806.0,1773.0,13177842.0,
2007.0,1563.0,1808.0,1772.0,13177846.0,
2007.0,1562.0,1806.0,1769.0,13177850.0,
2007.0,1567.0,1806.0,1765.0,13177853.0,
2008.0,1563.0,1805.0,1763.0,13177857.0,
2007.0,1562.0,1803.0,1762.0,13177861.0,
2008.0,1560.0,1804.0,1758.0,13177864.0,
2007.0,1563.0,1801.0,1750.0,13177868.0,
2007.0,1561.0,1799.0,1749.0,13177871.0,
2007.0,1563.0,1801.0,1746.0,13177875.0,
2007.0,1562.0,1801.0,1740.0,13177879.0,
2003.0,1562.0,1803.0,1738.0,13177882.0,
2008.0,1564.0,1801.0,1735.0,13177886.0,
2008.0,1563.0,1799.0,1734.0,13177890.0,
2007.0,1571.0,1799.0,1732.0,13177893.0,
2007.0,1564.0,1795.0,1733.0,13177897.0,
2007.0,1563.0,1794.0,1734.0,13177900.0,
2008.0,1566.0,1794.0,1738.0,13177904.0,
2007.0,1564.0,1794.0,1739.0,13177908.0,
2007.0,1564.0,1793.0,1741.0,13177911.0,
2007.0,1564.0,1793.0,1744.0,13177915.0,
2007.0,1564.0,1793.0,1740.0,13177919.0,
2007.0,1565.0,1790.0,1745.0,13177922.0,
2008.0,1564.0,1791.0,1736.0,13177926.0,
2007.0,1565.0,1792.0,1735.0,13177930.0,
2007.0,1564.0,1793.0,1732.0,13177933.0,
2009.0,1565.0,1790.0,1728.0,13177937.0,
2007.0,1563.0,1790.0,1721.0,13177940.0,
2007.0,1564.0,1791.0,1724.0,13177944.0,
2007.0,1565.0,1792.0,1722.0,13177948.0,
2007.0,1564.0,1791.0,1726.0,13177951.0,
2007.0,1566.0,1793.0,1728.0,13177955.0,
2007.0,1566.0,1793.0,1727.0,13177959.0,
2007.0,1565.0,1793.0,1730.0,13177962.0,
2009.0,1566.0,1793.0,1730.0,13177966.0,
2008.0,1566.0,1791.0,1733.0,13177970.0,
2005.0,1565.0,1793.0,1731.0,13177973.0,
2007.0,1567.0,1795.0,1734.0,13177977.0,
2007.0,1569.0,1795.0,1731.0,13177980.0,
2008.0,1566.0,1798.0,1729.0,13177984.0,
2007.0,1566.0,1799.0,1728.0,13177988.0,
2007.0,1566.0,1797.0,1727.0,13177991.0,
2008.0,1568.0,1800.0,1727.0,13177995.0,
2007.0,1565.0,1803.0,1725.0,13177999.0,
2007.0,1566.0,1802.0,1730.0,13178002.0,
2007.0,1566.0,1802.0,1728.0,13178006.0,
2007.0,1563.0,1803.0,1732.0,13178010.0,
2007.0,1566.0,1802.0,1730.0,13178013.0,
2007.0,1566.0,1801.0,1731.0,13178017.0,
2012.0,1566.0,1803.0,1729.0,13178020.0,
2007.0,1566.0,1801.0,1731.0,13178024.0,
2007.0,1567.0,1802.0,1732.0,13178028.0,
2007.0,1568.0,1799.0,1734.0,13178031.0,
2008.0,1569.0,1800.0,1740.0,13178035.0,
2003.0,1567.0,1799.0,1739.0,13178039.0,
2007.0,1566.0,1795.0,1750.0,13178042.0,
2008.0,1573.0,1795.0,1756.0,13178046.0,
2008.0,1567.0,1794.0,1768.0,13178050.0,
2007.0,1567.0,1799.0,1786.0,13178053.0,
2007.0,1563.0,1798.0,1800.0,13178057.0,
2008.0,1565.0,1801.0,1821.0,13178060.0,
2007.0,1568.0,1805.0,1844.0,13178064.0,
2007.0,1567.0,1804.0,1870.0,13178068.0,
2007.0,1567.0,1812.0,1897.0,13178071.0,
2007.0,1567.0,1819.0,1927.0,13178075.0,
2000.0,1567.0,1826.0,1957.0,13178079.0,
2007.0,1566.0,1842.0,1996.0,13178082.0,
2006.0,1568.0,1855.0,2028.0,13178086.0,
2010.0,1567.0,1874.0,2069.0,13178090.0,
2008.0,1569.0,1894.0,2111.0,13178093.0,
2008.0,1569.0,1921.0,2151.0,13178097.0,
2007.0,1567.0,1947.0,2194.0,13178100.0,
2009.0,1568.0,1978.0,2238.0,13178104.0,
2006.0,1567.0,2008.0,2278.0,13178108.0,
2009.0,1568.0,2053.0,2327.0,13178111.0,
2007.0,1569.0,2095.0,2368.0,13178115.0,
2007.0,1569.0,2139.0,2411.0,13178119.0,
2008.0,1567.0,2187.0,2456.0,13178122.0,
2007.0,1572.0,2237.0,2500.0,13178126.0,
2008.0,1568.0,2288.0,2535.0,13178129.0,
2008.0,1569.0,2339.0,2579.0,13178133.0,
2008.0,1567.0,2391.0,2617.0,13178137.0,
2008.0,1568.0,2441.0,2653.0,13178140.0,
2008.0,1569.0,2495.0,2684.0,13178144.0,
2008.0,1569.0,2542.0,2711.0,13178148.0,
2008.0,1570.0,2590.0,2738.0,13178151.0,
2008.0,1566.0,2637.0,2760.0,13178155.0,
2009.0,1569.0,2679.0,2780.0,13178159.0,
2008.0,1569.0,2718.0,2800.0,13178162.0,
2008.0,1569.0,2752.0,2807.0,13178166.0,
2008.0,1568.0,2786.0,2820.0,13178169.0,
2010.0,1569.0,2815.0,2827.0,13178173.0,
2009.0,1564.0,2839.0,2833.0,13178177.0,
2009.0,1568.0,2860.0,2835.0,13178180.0,
2008.0,1570.0,2873.0,2833.0,13178184.0,
2008.0,1569.0,2888.0,2832.0,13178188.0,
2009.0,1569.0,2896.0,2831.0,13178191.0,
2009.0,1570.0,2897.0,2827.0,13178195.0,
2008.0,1569.0,2896.0,2820.0,13178199.0,
2006.0,1569.0,2892.0,2817.0,13178202.0,
2009.0,1570.0,2885.0,2813.0,13178206.0,
2009.0,1570.0,2874.0,2801.0,13178209.0,
2009.0,1570.0,2861.0,2797.0,13178213.0,
2008.0,1570.0,2844.0,2793.0,13178217.0,
2009.0,1569.0,2826.0,2780.0,13178220.0,
2008.0,1568.0,2807.0,2776.0,13178224.0,
2008.0,1570.0,2783.0,2768.0,13178228.0,
2010.0,1570.0,2760.0,2758.0,13178231.0,
2008.0,1571.0,2735.0,2748.0,13178235.0,
2009.0,1570.0,2706.0,2737.0,13178239.0,
2009.0,1568.0,2679.0,2730.0,13178242.0,
2009.0,1570.0,2648.0,2721.0,13178246.0,
2008.0,1569.0,2621.0,2712.0,13178249.0,
2008.0,1570.0,2594.0,2697.0,13178253.0,
2008.0,1569.0,2568.0,2689.0,13178257.0,
2009.0,1569.0,2540.0,2676.0,13178260.0,
2008.0,1569.0,2513.0,2665.0,13178264.0,
2010.0,1569.0,2485.0,2652.0,13178268.0,
2010.0,1565.0,2459.0,2641.0,13178271.0,
2008.0,1569.0,2433.0,2627.0,13178275.0,
2007.0,1570.0,2411.0,2616.0,13178279.0,
2009.0,1569.0,2385.0,2606.0,13178282.0,
2007.0,1570.0,2365.0,2592.0,13178286.0,
2009.0,1571.0,2344.0,2581.0,13178289.0,
2008.0,1568.0,2324.0,2567.0,13178293.0,
2009.0,1568.0,2305.0,2551.0,13178297.0,
2009.0,1569.0,2287.0,2534.0,13178300.0,
2011.0,1569.0,2268.0,2518.0,13178304.0,
2008.0,1568.0,2252.0,2501.0,13178308.0,
2011.0,1566.0,2236.0,2483.0,13178311.0,
2008.0,1568.0,2219.0,2461.0,13178315.0,
2010.0,1570.0,2205.0,2445.0,13178319.0,
2008.0,1568.0,2189.0,2426.0,13178322.0,
2008.0,1569.0,2171.0,2408.0,13178326.0,
2009.0,1569.0,2162.0,2391.0,13178329.0,
2009.0,1568.0,2146.0,2374.0,13178333.0,
2008.0,1568.0,2131.0,2359.0,13178337.0,
2014.0,1569.0,2117.0,2348.0,13178340.0,
2009.0,1567.0,2104.0,2336.0,13178344.0,
2010.0,1568.0,2092.0,2322.0,13178348.0,
2009.0,1569.0,2080.0,2309.0,13178351.0,
2009.0,1569.0,2067.0,2298.0,13178355.0,
2010.0,1568.0,2052.0,2291.0,13178358.0,
2009.0,1567.0,2041.0,2283.0,13178362.0,
2006.0,1567.0,2029.0,2274.0,13178366.0,
2009.0,1565.0,2018.0,2265.0,13178369.0,
2009.0,1567.0,2005.0,2262.0,13178373.0,
2008.0,1567.0,1995.0,2254.0,13178377.0,
2010.0,1567.0,1984.0,2250.0,13178380.0,
2009.0,1567.0,1977.0,2246.0,13178384.0,
2009.0,1567.0,1969.0,2241.0,13178388.0,
2009.0,1567.0,1962.0,2238.0,13178391.0,
2014.0,1567.0,1956.0,2235.0,13178395.0,
2008.0,1566.0,1955.0,2227.0,13178398.0,
2011.0,1568.0,1954.0,2225.0,13178402.0,
2008.0,1566.0,1950.0,2222.0,13178406.0,
2010.0,1569.0,1950.0,2218.0,13178409.0,
2009.0,1567.0,1950.0,2215.0,13178413.0,
2010.0,1565.0,1949.0,2212.0,13178417.0,
2008.0,1573.0,1956.0,2209.0,13178420.0,
2009.0,1565.0,1954.0,2207.0,13178424.0,
2008.0,1566.0,1960.0,2202.0,13178428.0,
2009.0,1564.0,1965.0,2198.0,13178431.0,
2009.0,1566.0,1968.0,2191.0,13178435.0,
2008.0,1568.0,1973.0,2186.0,13178438.0,
2008.0,1567.0,1979.0,2183.0,13178442.0,
2015.0,1565.0,1984.0,2174.0,13178446.0,
2009.0,1564.0,1991.0,2172.0,13178449.0,
2009.0,1566.0,1998.0,2167.0,13178453.0,
2009.0,1562.0,2002.0,2160.0,13178457.0,
2009.0,1564.0,2005.0,2151.0,13178460.0,
2009.0,1562.0,2012.0,2144.0,13178464.0,
2009.0,1565.0,2017.0,2137.0,13178468.0,
2009.0,1566.0,2022.0,2129.0,13178471.0,
2009.0,1566.0,2025.0,2117.0,13178475.0,
2009.0,1565.0,2030.0,2108.0,13178478.0,
2009.0,1565.0,2029.0,2102.0,13178482.0,
2008.0,1564.0,2031.0,2090.0,13178486.0,
2005.0,1562.0,2031.0,2083.0,13178489.0,
2009.0,1563.0,2031.0,2073.0,13178493.0,
2008.0,1564.0,2028.0,2064.0,13178497.0,
2008.0,1564.0,2026.0,2054.0,13178500.0,
2006.0,1564.0,2022.0,2047.0,13178504.0,
2008.0,1563.0,2016.0,2037.0,13178508.0,
2008.0,1565.0,2015.0,2031.0,13178511.0,
2009.0,1563.0,2011.0,2023.0,13178515.0,
2009.0,1562.0,2001.0,2014.0,13178518.0,
2008.0,1563.0,1997.0,2005.0,13178522.0,
2009.0,1564.0,1988.0,1997.0,13178526.0,
2008.0,1563.0,1982.0,1990.0,13178529.0,
2008.0,1565.0,1974.0,1985.0,13178533.0,
2009.0,1562.0,1969.0,1972.0,13178537.0,
2008.0,1563.0,1957.0,1967.0,13178540.0,
2008.0,1563.0,1947.0,1959.0,13178544.0,
2008.0,1561.0,1945.0,1954.0,13178547.0,
2008.0,1563.0,1935.0,1950.0,13178551.0,
2009.0,1563.0,1928.0,1943.0,13178555.0,
2009.0,1561.0,1917.0,1937.0,13178558.0,
2008.0,1564.0,1909.0,1934.0,13178562.0,
2009.0,1563.0,1901.0,1928.0,13178566.0,
2008.0,1562.0,1895.0,1920.0,13178569.0,
2009.0,1564.0,1886.0,1918.0,13178573.0,
2008.0,1563.0,1877.0,1919.0,13178577.0,
2009.0,1562.0,1871.0,1907.0,13178580.0,
2008.0,1563.0,1867.0,1900.0,13178584.0,
2008.0,1563.0,1857.0,1895.0,13178587.0,
2009.0,1562.0,1855.0,1888.0,13178591.0,
2008.0,1563.0,1848.0,1884.0,13178595.0,
2009.0,1563.0,1842.0,1881.0,13178598.0,
2008.0,1562.0,1836.0,1878.0,13178602.0,
2008.0,1561.0,1832.0,1872.0,13178606.0,
2008.0,1561.0,1828.0,1867.0,13178609.0,
2008.0,1562.0,1825.0,1863.0,13178613.0,
2008.0,1563.0,1821.0,1856.0,13178617.0,
2008.0,1561.0,1819.0,1852.0,13178620.0,
2008.0,1561.0,1816.0,1850.0,13178624.0,
2010.0,1560.0,1815.0,1848.0,13178627.0,
2008.0,1561.0,1813.0,1848.0,13178631.0,
2009.0,1561.0,1811.0,1841.0,13178635.0,
2008.0,1560.0,1811.0,1842.0,13178638.0,
2009.0,1561.0,1812.0,1838.0,13178642.0,
2006.0,1560.0,1812.0,1838.0,13178646.0,
2008.0,1560.0,1812.0,1834.0,13178649.0,
2008.0,1561.0,1814.0,1832.0,13178653.0,
2009.0,1561.0,1816.0,1829.0,13178657.0,
2009.0,1561.0,1816.0,1828.0,13178660.0,
2009.0,1561.0,1821.0,1823.0,13178664.0,
2008.0,1560.0,1821.0,1824.0,13178667.0,
2008.0,1560.0,1822.0,1823.0,13178671.0,
2009.0,1562.0,1827.0,1821.0,13178675.0,
2008.0,1560.0,1827.0,1820.0,13178678.0,
2008.0,1562.0,1832.0,1818.0,13178682.0,
2008.0,1562.0,1834.0,1819.0,13178686.0,
2012.0,1562.0,1838.0,1818.0,13178689.0,
2008.0,1561.0,1838.0,1816.0,13178693.0,
2007.0,1561.0,1839.0,1811.0,13178697.0,
2009.0,1562.0,1840.0,1808.0,13178700.0,
2008.0,1560.0,1842.0,1806.0,13178704.0,
2008.0,1560.0,1844.0,1806.0,13178707.0,
2008.0,1560.0,1843.0,1805.0,13178711.0,
2009.0,1560.0,1844.0,1796.0,13178715.0,
2008.0,1559.0,1844.0,1805.0,13178718.0,
2009.0,1560.0,1844.0,1805.0,13178722.0,
2009.0,1558.0,1847.0,1804.0,13178726.0,
2008.0,1561.0,1848.0,1802.0,13178729.0,
2009.0,1567.0,1850.0,1804.0,13178733.0,
2008.0,1561.0,1850.0,1799.0,13178736.0,
2008.0,1561.0,1856.0,1796.0,13178740.0,
2012.0,1560.0,1853.0,1792.0,13178744.0,
2009.0,1560.0,1853.0,1785.0,13178747.0,
2008.0,1559.0,1854.0,1782.0,13178751.0,
2008.0,1559.0,1855.0,1777.0,13178755.0,
2008.0,1560.0,1856.0,1772.0,13178758.0,
2008.0,1559.0,1859.0,1761.0,13178762.0,
2007.0,1560.0,1860.0,1764.0,13178766.0,
2009.0,1560.0,1864.0,1758.0,13178769.0,
2009.0,1559.0,1864.0,1755.0,13178773.0,
2008.0,1561.0,1866.0,1747.0,13178776.0,
2008.0,1561.0,1867.0,1744.0,13178780.0,
2008.0,1561.0,1870.0,1744.0,13178784.0,
2008.0,1560.0,1870.0,1740.0,13178787.0,
2008.0,1559.0,1869.0,1743.0,13178791.0,
2008.0,1559.0,1868.0,1740.0,13178795.0,
2009.0,1560.0,1869.0,1735.0,13178798.0,
2008.0,1560.0,1866.0,1734.0,13178802.0,
2008.0,1559.0,1864.0,1735.0,13178806.0,
2009.0,1559.0,1861.0,1724.0,13178809.0,
2008.0,1560.0,1860.0,1724.0,13178813.0,
2008.0,1557.0,1859.0,1720.0,13178816.0,
2009.0,1560.0,1854.0,1717.0,13178820.0,
2008.0,1560.0,1852.0,1715.0,13178824.0,
2008.0,1560.0,1851.0,1710.0,13178827.0,
2011.0,1559.0,1854.0,1711.0,13178831.0,
2008.0,1560.0,1853.0,1708.0,13178835.0,
2009.0,1559.0,1852.0,1708.0,13178838.0,
2009.0,1560.0,1850.0,1705.0,13178842.0,
2009.0,1559.0,1851.0,1705.0,13178846.0,
2008.0,1562.0,1847.0,1701.0,13178849.0,
2007.0,1559.0,1848.0,1702.0,13178853.0,
2009.0,1559.0,1849.0,1698.0,13178856.0,
2008.0,1559.0,1845.0,1702.0,13178860.0,
2008.0,1559.0,1845.0,1702.0,13178864.0,
2008.0,1560.0,1845.0,1698.0,13178867.0,
2008.0,1561.0,1844.0,1703.0,13178871.0,
2008.0,1561.0,1844.0,1699.0,13178875.0,
2008.0,1558.0,1840.0,1701.0,13178878.0,
2008.0,1560.0,1842.0,1701.0,13178882.0,
2008.0,1560.0,1840.0,1699.0,13178886.0,
2012.0,1560.0,1841.0,1702.0,13178889.0,
2008.0,1560.0,1841.0,1706.0,13178893.0,
2008.0,1558.0,1840.0,1701.0,13178896.0,
2009.0,1563.0,1841.0,1698.0,13178900.0,
2008.0,1560.0,1840.0,1699.0,13178904.0,
2008.0,1559.0,1838.0,1697.0,13178907.0,
2009.0,1554.0,1839.0,1695.0,13178911.0,
2008.0,1558.0,1836.0,1692.0,13178915.0,
2009.0,1559.0,1836.0,1695.0,13178918.0,
2008.0,1559.0,1837.0,1693.0,13178922.0,
2008.0,1557.0,1831.0,1687.0,13178926.0,
2008.0,1557.0,1831.0,1687.0,13178929.0,
2008.0,1558.0,1828.0,1690.0,13178933.0,
2007.0,1559.0,1829.0,1686.0,13178936.0,
2008.0,1561.0,1825.0,1681.0,13178940.0,
2010.0,1559.0,1826.0,1678.0,13178944.0,
2007.0,1560.0,1825.0,1674.0,13178947.0,
2007.0,1558.0,1824.0,1674.0,13178951.0,
2008.0,1558.0,1824.0,1671.0,13178955.0,
2008.0,1554.0,1823.0,1666.0,13178958.0,
2008.0,1561.0,1825.0,1666.0,13178962.0,
2007.0,1558.0,1824.0,1665.0,13178965.0,
2008.0,1562.0,1828.0,1666.0,13178969.0,
2009.0,1559.0,1831.0,1667.0,13178973.0,
2008.0,1560.0,1830.0,1669.0,13178976.0,
2008.0,1558.0,1829.0,1672.0,13178980.0,
2008.0,1559.0,1831.0,1675.0,13178984.0,
2008.0,1560.0,1831.0,1678.0,13178987.0,
2008.0,1559.0,1832.0,1688.0,13178991.0,
2008.0,1560.0,1839.0,1693.0,13178995.0,
2009.0,1562.0,1833.0,1701.0,13178998.0,
2009.0,1559.0,1833.0,1713.0,13179002.0,
2009.0,1559.0,1835.0,1722.0,13179005.0,
2008.0,1558.0,1832.0,1738.0,13179009.0,
2016.0,1559.0,1833.0,1754.0,13179013.0,
2009.0,1564.0,1834.0,1770.0,13179016.0,
2009.0,1560.0,1837.0,1794.0,13179020.0,
2008.0,1560.0,1838.0,1820.0,13179024.0,
2009.0,1559.0,1844.0,1844.0,13179027.0,
2007.0,1560.0,1850.0,1876.0,13179031.0,
2009.0,1560.0,1858.0,1906.0,13179035.0,
2008.0,1557.0,1868.0,1941.0,13179038.0,
2008.0,1559.0,1881.0,1974.0,13179042.0,
2009.0,1559.0,1898.0,2011.0,13179045.0,
2008.0,1560.0,1920.0,2047.0,13179049.0,
2008.0,1562.0,1941.0,2088.0,13179053.0,
2009.0,1559.0,1963.0,2129.0,13179056.0,
2009.0,1558.0,1992.0,2170.0,13179060.0,
2009.0,1559.0,2025.0,2212.0,13179064.0,
2009.0,1558.0,2060.0,2247.0,13179067.0,
2010.0,1559.0,2097.0,2300.0,13179071.0,
2009.0,1560.0,2141.0,2339.0,13179075.0,
2008.0,1559.0,2183.0,2386.0,13179078.0,
2010.0,1559.0,2236.0,2421.0,13179082.0,
2009.0,1559.0,2280.0,2455.0,13179085.0,
2008.0,1563.0,2327.0,2489.0,13179089.0,
2010.0,1560.0,2377.0,2522.0,13179093.0,
2009.0,1561.0,2424.0,2554.0,13179096.0,
2009.0,1561.0,2475.0,2582.0,13179100.0,
2010.0,1561.0,2521.0,2605.0,13179104.0,
2009.0,1560.0,2566.0,2629.0,13179107.0,
2009.0,1559.0,2610.0,2650.0,13179111.0,
2009.0,1562.0,2653.0,2667.0,13179115.0,
2009.0,1560.0,2694.0,2681.0,13179118.0,
2008.0,1560.0,2732.0,2696.0,13179122.0,
2009.0,1561.0,2767.0,2705.0,13179125.0,
2010.0,1559.0,2799.0,2712.0,13179129.0,
2010.0,1559.0,2827.0,2718.0,13179133.0,
2009.0,1559.0,2851.0,2722.0,13179136.0,
2009.0,1558.0,2871.0,2727.0,13179140.0,
2009.0,1558.0,2885.0,2728.0,13179144.0,
2009.0,1560.0,2896.0,2729.0,13179147.0,
2010.0,1560.0,2899.0,2727.0,13179151.0,
2010.0,1558.0,2903.0,2726.0,13179155.0,
2010.0,1560.0,2902.0,2724.0,13179158.0,
2011.0,1559.0,2899.0,2725.0,13179162.0,
2008.0,1560.0,2887.0,2722.0,13179165.0,
2009.0,1561.0,2877.0,2717.0,13179169.0,
2010.0,1560.0,2866.0,2713.0,13179173.0,
2010.0,1560.0,2848.0,2704.0,13179176.0,
2010.0,1560.0,2832.0,2699.0,13179180.0,
2012.0,1559.0,2812.0,2686.0,13179184.0,
2009.0,1559.0,2789.0,2672.0,13179187.0,
2010.0,1559.0,2767.0,2661.0,13179191.0,
2010.0,1559.0,2741.0,2643.0,13179194.0,
2010.0,1559.0,2718.0,2629.0,13179198.0,
2009.0,1559.0,2689.0,2618.0,13179202.0,
2010.0,1562.0,2665.0,2602.0,13179205.0,
2010.0,1559.0,2637.0,2592.0,13179209.0,
2010.0,1560.0,2611.0,2582.0,13179213.0,
2010.0,1560.0,2590.0,2569.0,13179216.0,
2009.0,1558.0,2564.0,2558.0,13179220.0,
2012.0,1562.0,2541.0,2547.0,13179224.0,
2010.0,1558.0,2514.0,2535.0,13179227.0,
2004.0,1559.0,2493.0,2525.0,13179231.0,
2010.0,1560.0,2470.0,2513.0,13179234.0,
2009.0,1560.0,2451.0,2496.0,13179238.0,
2011.0,1559.0,2428.0,2486.0,13179242.0,
2010.0,1559.0,2410.0,2471.0,13179245.0,
2011.0,1559.0,2390.0,2458.0,13179249.0,
2011.0,1559.0,2373.0,2442.0,13179253.0,
2007.0,1560.0,2352.0,2425.0,13179256.0,
2010.0,1559.0,2335.0,2418.0,13179260.0,
2010.0,1559.0,2317.0,2394.0,13179264.0,
2010.0,1558.0,2300.0,2374.0,13179267.0,
2010.0,1560.0,2286.0,2358.0,13179271.0,
2010.0,1559.0,2272.0,2341.0,13179274.0,
2010.0,1560.0,2256.0,2322.0,13179278.0,
2010.0,1559.0,2242.0,2310.0,13179282.0,
2010.0,1558.0,2228.0,2290.0,13179285.0,
2010.0,1557.0,2212.0,2276.0,13179289.0,
2010.0,1558.0,2198.0,2264.0,13179293.0,
2010.0,1559.0,2184.0,2247.0,13179296.0,
2009.0,1560.0,2171.0,2233.0,13179300.0,
2010.0,1559.0,2158.0,2218.0,13179304.0,
2010.0,1558.0,2141.0,2205.0,13179307.0,
2009.0,1557.0,2126.0,2193.0,13179311.0,
2010.0,1558.0,2112.0,2181.0,13179314.0,
2009.0,1558.0,2097.0,2169.0,13179318.0,
2011.0,1560.0,2083.0,2161.0,13179322.0,
2010.0,1562.0,2070.0,2144.0,13179325.0,
2010.0,1560.0,2056.0,2137.0,13179329.0,
2010.0,1559.0,2042.0,2127.0,13179333.0,
2009.0,1562.0,2032.0,2118.0,13179336.0,
2008.0,1559.0,2022.0,2112.0,13179340.0,
2009.0,1557.0,2009.0,2106.0,13179344.0,
2009.0,1559.0,2005.0,2095.0,13179347.0,
2011.0,1558.0,1996.0,2092.0,13179351.0,
2009.0,1553.0,1992.0,2084.0,13179354.0,
2010.0,1554.0,1986.0,2082.0,13179358.0,
2010.0,1559.0,1982.0,2079.0,13179362.0,
2009.0,1558.0,1978.0,2074.0,13179365.0,
2009.0,1556.0,1975.0,2071.0,13179369.0,
2010.0,1559.0,1974.0,2070.0,13179373.0,
2009.0,1558.0,1971.0,2063.0,13179376.0,
2010.0,1559.0,1971.0,2062.0,13179380.0,
2009.0,1559.0,1972.0,2058.0,13179383.0,
2009.0,1558.0,1974.0,2052.0,13179387.0,
2009.0,1558.0,1979.0,2048.0,13179391.0,
2009.0,1559.0,1979.0,2044.0,13179394.0,
2010.0,1558.0,1983.0,2040.0,13179398.0,
2009.0,1561.0,1985.0,2039.0,13179402.0,
2010.0,1559.0,1990.0,2033.0,13179405.0,
2008.0,1557.0,1995.0,2031.0,13179409.0,
2009.0,1560.0,1999.0,2025.0,13179413.0,
2010.0,1560.0,2005.0,2021.0,13179416.0,
2010.0,1559.0,2013.0,2013.0,13179420.0,
2010.0,1559.0,2019.0,2010.0,13179423.0,
2010.0,1558.0,2019.0,2000.0,13179427.0,
2010.0,1558.0,2031.0,1987.0,13179431.0,
2009.0,1556.0,2035.0,1977.0,13179434.0,
2008.0,1558.0,2040.0,1975.0,13179438.0,
2009.0,1560.0,2040.0,1965.0,13179442.0,
2009.0,1558.0,2042.0,1957.0,13179445.0,
2009.0,1559.0,2043.0,1952.0,13179449.0,
2010.0,1558.0,2044.0,1943.0,13179453.0,
2009.0,1558.0,2042.0,1938.0,13179456.0,
2009.0,1558.0,2042.0,1930.0,13179460.0,
2010.0,1559.0,2037.0,1925.0,13179463.0,
2010.0,1559.0,2035.0,1919.0,13179467.0,
2010.0,1557.0,2031.0,1914.0,13179471.0,
2009.0,1558.0,2022.0,1908.0,13179474.0,
2010.0,1558.0,2020.0,1904.0,13179478.0,
2009.0,1557.0,2013.0,1895.0,13179482.0,
2004.0,1558.0,2006.0,1888.0,13179485.0,
2010.0,1558.0,1997.0,1883.0,13179489.0,
2010.0,1559.0,1990.0,1876.0,13179493.0,
2009.0,1559.0,1979.0,1869.0,13179496.0,
2009.0,1557.0,1971.0,1860.0,13179500.0,
2007.0,1558.0,1961.0,1857.0,13179503.0,
2008.0,1559.0,1953.0,1849.0,13179507.0,
2010.0,1558.0,1950.0,1841.0,13179511.0,
2008.0,1559.0,1938.0,1835.0,13179514.0,
2009.0,1558.0,1934.0,1829.0,13179518.0,
2009.0,1558.0,1924.0,1824.0,13179522.0,
2009.0,1558.0,1918.0,1817.0,13179525.0,
2010.0,1558.0,1913.0,1812.0,13179529.0,
2009.0,1557.0,1906.0,1808.0,13179533.0,
2010.0,1558.0,1902.0,1800.0,13179536.0,
2009.0,1559.0,1895.0,1788.0,13179540.0,
2009.0,1559.0,1891.0,1791.0,13179543.0,
2009.0,1555.0,1886.0,1785.0,13179547.0,
2010.0,1558.0,1880.0,1781.0,13179551.0,
2008.0,1559.0,1877.0,1776.0,13179554.0,
2009.0,1551.0,1876.0,1772.0,13179558.0,
2010.0,1556.0,1871.0,1772.0,13179562.0,
2009.0,1558.0,1869.0,1765.0,13179565.0,
2009.0,1558.0,1868.0,1766.0,13179569.0,
2009.0,1558.0,1866.0,1765.0,13179572.0,
2009.0,1558.0,1862.0,1758.0,13179576.0,
2009.0,1557.0,1857.0,1765.0,13179580.0,
2009.0,1557.0,1856.0,1765.0,13179583.0,
2008.0,1557.0,1855.0,1769.0,13179587.0,
2003.0,1557.0,1854.0,1769.0,13179591.0,
2009.0,1561.0,1853.0,1772.0,13179594.0,
2009.0,1557.0,1852.0,1771.0,13179598.0,
2008.0,1558.0,1848.0,1773.0,13179602.0,
2009.0,1557.0,1851.0,1770.0,13179605.0,
2009.0,1558.0,1850.0,1774.0,13179609.0,
2009.0,1557.0,1852.0,1770.0,13179612.0,
2009.0,1558.0,1849.0,1770.0,13179616.0,
2009.0,1559.0,1852.0,1769.0,13179620.0,
2008.0,1557.0,1852.0,1770.0,13179623.0,
2009.0,1557.0,1853.0,1767.0,13179627.0,
2010.0,1557.0,1855.0,1766.0,13179631.0,
2008.0,1557.0,1856.0,1766.0,13179634.0,
2009.0,1558.0,1850.0,1764.0,13179638.0,
2009.0,1558.0,1857.0,1765.0,13179642.0,
2009.0,1558.0,1857.0,1760.0,13179645.0,
2009.0,1557.0,1857.0,1758.0,13179649.0,
2008.0,1557.0,1859.0,1757.0,13179652.0,
2008.0,1559.0,1855.0,1751.0,13179656.0,
2009.0,1559.0,1859.0,1751.0,13179660.0,
2008.0,1558.0,1854.0,1746.0,13179663.0,
2009.0,1557.0,1854.0,1741.0,13179667.0,
2009.0,1557.0,1853.0,1740.0,13179671.0,
2009.0,1555.0,1853.0,1736.0,13179674.0,
2009.0,1557.0,1856.0,1732.0,13179678.0,
2011.0,1557.0,1856.0,1729.0,13179682.0,
2010.0,1557.0,1855.0,1720.0,13179685.0,
2009.0,1557.0,1856.0,1719.0,13179689.0,
2009.0,1558.0,1853.0,1715.0,13179692.0,
2009.0,1557.0,1853.0,1713.0,13179696.0,
2009.0,1558.0,1854.0,1707.0,13179700.0,
2009.0,1556.0,1855.0,1706.0,13179703.0,
2010.0,1557.0,1854.0,1700.0,13179707.0,
2009.0,1557.0,1848.0,1699.0,13179711.0,
2009.0,1558.0,1851.0,1692.0,13179714.0,
2009.0,1557.0,1853.0,1689.0,13179718.0,
2009.0,1557.0,1852.0,1693.0,13179722.0,
2010.0,1557.0,1854.0,1689.0,13179725.0,
2010.0,1556.0,1853.0,1690.0,13179729.0,
2008.0,1557.0,1857.0,1692.0,13179732.0,
2009.0,1558.0,1858.0,1694.0,13179736.0,
2009.0,1558.0,1862.0,1688.0,13179740.0,
2009.0,1556.0,1861.0,1693.0,13179743.0,
2009.0,1554.0,1862.0,1694.0,13179747.0,
2010.0,1557.0,1861.0,1694.0,13179751.0,
2010.0,1557.0,1861.0,1691.0,13179754.0,
2011.0,1558.0,1859.0,1689.0,13179758.0,
2009.0,1557.0,1856.0,1689.0,13179762.0,
2009.0,1556.0,1854.0,1689.0,13179765.0,
2009.0,1558.0,1851.0,1691.0,13179769.0,
2010.0,1556.0,1856.0,1692.0,13179772.0,
2009.0,1552.0,1849.0,1690.0,13179776.0,
2009.0,1557.0,1847.0,1691.0,13179780.0,
2009.0,1558.0,1844.0,1691.0,13179783.0,
2010.0,1557.0,1845.0,1689.0,13179787.0,
2009.0,1558.0,1842.0,1690.0,13179791.0,
2011.0,1556.0,1843.0,1687.0,13179794.0,
2009.0,1557.0,1835.0,1686.0,13179798.0,
2009.0,1558.0,1836.0,1695.0,13179801.0,
2009.0,1558.0,1834.0,1685.0,13179805.0,
2009.0,1560.0,1831.0,1685.0,13179809.0,
2009.0,1559.0,1833.0,1684.0,13179812.0,
2009.0,1556.0,1832.0,1684.0,13179816.0,
2009.0,1558.0,1831.0,1683.0,13179820.0,
2008.0,1557.0,1829.0,1685.0,13179823.0,
2009.0,1558.0,1829.0,1683.0,13179827.0,
2009.0,1556.0,1828.0,1685.0,13179831.0,
2009.0,1557.0,1822.0,1681.0,13179834.0,
2009.0,1557.0,1827.0,1685.0,13179838.0,
2009.0,1557.0,1827.0,1684.0,13179841.0,
2009.0,1556.0,1829.0,1681.0,13179845.0,
2009.0,1557.0,1828.0,1685.0,13179849.0,
2009.0,1558.0,1827.0,1679.0,13179852.0,
2009.0,1558.0,1824.0,1682.0,13179856.0,
2010.0,1557.0,1824.0,1681.0,13179860.0,
2010.0,1558.0,1824.0,1679.0,13179863.0,
2009.0,1559.0,1821.0,1672.0,13179867.0,
2009.0,1557.0,1821.0,1682.0,13179871.0,
2009.0,1560.0,1823.0,1679.0,13179874.0,
2010.0,1558.0,1822.0,1679.0,13179878.0,
2009.0,1558.0,1822.0,1678.0,13179881.0,
2010.0,1557.0,1821.0,1676.0,13179885.0,
2009.0,1557.0,1820.0,1677.0,13179889.0,
2009.0,1555.0,1820.0,1677.0,13179892.0,
2009.0,1557.0,1817.0,1673.0,13179896.0,
2009.0,1559.0,1819.0,1672.0,13179900.0,
2010.0,1558.0,1816.0,1671.0,13179903.0,
2014.0,1558.0,1818.0,1667.0,13179907.0,
2009.0,1558.0,1818.0,1667.0,13179911.0,
2008.0,1558.0,1820.0,1663.0,13179914.0,
2009.0,1559.0,1821.0,1662.0,13179918.0,
2010.0,1560.0,1823.0,1662.0,13179921.0,
2010.0,1557.0,1824.0,1662.0,13179925.0,
2010.0,1558.0,1830.0,1662.0,13179929.0,
2009.0,1558.0,1828.0,1663.0,13179932.0,
2010.0,1558.0,1828.0,1662.0,13179936.0,
2009.0,1559.0,1830.0,1662.0,13179940.0,
2009.0,1559.0,1832.0,1660.0,13179943.0,
2010.0,1557.0,1832.0,1655.0,13179947.0,
2009.0,1557.0,1831.0,1655.0,13179951.0,
2010.0,1559.0,1830.0,1653.0,13179954.0,
2009.0,1558.0,1831.0,1653.0,13179958.0,
2009.0,1557.0,1833.0,1652.0,13179961.0,
2010.0,1564.0,1826.0,1650.0,13179965.0,
2010.0,1559.0,1825.0,1647.0,13179969.0,
2009.0,1558.0,1824.0,1647.0,13179972.0,
2009.0,1559.0,1824.0,1641.0,13179976.0,
2009.0,1558.0,1824.0,1641.0,13179980.0,
2011.0,1558.0,1823.0,1639.0,13179983.0,
2009.0,1560.0,1823.0,1639.0,13179987.0,
2009.0,1559.0,1823.0,1641.0,13179990.0,
2010.0,1557.0,1825.0,1647.0,13179994.0,
2009.0,1557.0,1824.0,1649.0,13179998.0,
2010.0,1557.0,1824.0,1657.0,13180001.0,
2009.0,1559.0,1826.0,1665.0,13180005.0,
2007.0,1559.0,1824.0,1678.0,13180009.0,
2009.0,1558.0,1824.0,1691.0,13180012.0,
2009.0,1558.0,1825.0,1708.0,13180016.0,
2009.0,1559.0,1824.0,1730.0,13180020.0,
2009.0,1559.0,1825.0,1750.0,13180023.0,
2009.0,1559.0,1829.0,1774.0,13180027.0,
2008.0,1559.0,1840.0,1801.0,13180030.0,
2009.0,1558.0,1843.0,1828.0,13180034.0,
2010.0,1558.0,1850.0,1858.0,13180038.0,
2009.0,1555.0,1863.0,1895.0,13180041.0,
2009.0,1559.0,1875.0,1927.0,13180045.0,
2010.0,1559.0,1892.0,1968.0,13180049.0,
2010.0,1559.0,1913.0,2012.0,13180052.0,
2009.0,1558.0,1933.0,2050.0,13180056.0,
2009.0,1557.0,1961.0,2087.0,13180060.0,
2009.0,1558.0,1991.0,2131.0,13180063.0,
2009.0,1558.0,2024.0,2167.0,13180067.0,
2009.0,1558.0,2060.0,2210.0,13180070.0,
2011.0,1557.0,2099.0,2254.0,13180074.0,
2009.0,1561.0,2143.0,2286.0,13180078.0,
2010.0,1560.0,2187.0,2325.0,13180081.0,
2009.0,1559.0,2235.0,2364.0,13180085.0,
2010.0,1557.0,2285.0,2403.0,13180089.0,
2010.0,1557.0,2333.0,2436.0,13180092.0,
2009.0,1558.0,2385.0,2467.0,13180096.0,
2012.0,1557.0,2436.0,2496.0,13180100.0,
2010.0,1557.0,2489.0,2523.0,13180103.0,
2010.0,1560.0,2540.0,2548.0,13180107.0,
2010.0,1558.0,2591.0,2571.0,13180110.0,
2010.0,1554.0,2641.0,2590.0,13180114.0,
2010.0,1560.0,2689.0,2608.0,13180118.0,
2010.0,1557.0,2734.0,2626.0,13180121.0,
2011.0,1557.0,2774.0,2640.0,13180125.0,
2011.0,1557.0,2809.0,2653.0,13180129.0,
2010.0,1559.0,2845.0,2664.0,13180132.0,
2011.0,1556.0,2874.0,2668.0,13180136.0,
2011.0,1557.0,2900.0,2675.0,13180140.0,
2011.0,1558.0,2920.0,2677.0,13180143.0,
2011.0,1555.0,2938.0,2679.0,13180147.0,
2011.0,1558.0,2952.0,2686.0,13180150.0,
2009.0,1558.0,2963.0,2684.0,13180154.0,
2010.0,1556.0,2968.0,2678.0,13180158.0,
2011.0,1556.0,2969.0,2666.0,13180161.0,
2011.0,1557.0,2965.0,2670.0,13180165.0,
2011.0,1557.0,2962.0,2664.0,13180169.0,
2011.0,1556.0,2952.0,2658.0,13180172.0,
2011.0,1555.0,2939.0,2649.0,13180176.0,
2011.0,1555.0,2925.0,2644.0,13180180.0,
2011.0,1557.0,2908.0,2633.0,13180183.0,
2011.0,1557.0,2888.0,2627.0,13180187.0,
2010.0,1557.0,2862.0,2619.0,13180190.0,
2012.0,1555.0,2846.0,2606.0,13180194.0,
2011.0,1553.0,2822.0,2594.0,13180198.0,
2011.0,1556.0,2797.0,2585.0,13180201.0,
2010.0,1557.0,2770.0,2575.0,13180205.0,
2007.0,1551.0,2746.0,2563.0,13180209.0,
2010.0,1555.0,2720.0,2553.0,13180212.0,
2010.0,1553.0,2692.0,2541.0,13180216.0,
2011.0,1557.0,2668.0,2534.0,13180219.0,
2011.0,1556.0,2643.0,2528.0,13180223.0,
2011.0,1556.0,2617.0,2518.0,13180227.0,
2011.0,1557.0,2590.0,2515.0,13180230.0,
2011.0,1555.0,2568.0,2497.0,13180234.0,
2013.0,1555.0,2542.0,2488.0,13180238.0,
2010.0,1555.0,2521.0,2480.0,13180241.0,
2011.0,1555.0,2495.0,2468.0,13180245.0,
2011.0,1556.0,2478.0,2458.0,13180249.0,
2011.0,1556.0,2459.0,2447.0,13180252.0,
2011.0,1555.0,2441.0,2432.0,13180256.0,
2011.0,1556.0,2420.0,2420.0,13180259.0,
2010.0,1554.0,2402.0,2405.0,13180263.0,
2011.0,1555.0,2381.0,2391.0,13180267.0,
2014.0,1556.0,2366.0,2377.0,13180270.0,
2013.0,1554.0,2350.0,2363.0,13180274.0,
2011.0,1555.0,2334.0,2348.0,13180278.0,
2011.0,1555.0,2319.0,2333.0,13180281.0,
2011.0,1554.0,2306.0,2313.0,13180285.0,
2011.0,1557.0,2290.0,2299.0,13180289.0,
2010.0,1554.0,2273.0,2281.0,13180292.0,
2011.0,1554.0,2258.0,2265.0,13180296.0,
2011.0,1555.0,2243.0,2250.0,13180299.0,
2011.0,1554.0,2230.0,2238.0,13180303.0,
2011.0,1554.0,2216.0,2222.0,13180307.0,
2011.0,1555.0,2199.0,2211.0,13180310.0,
2011.0,1553.0,2185.0,2198.0,13180314.0,
2012.0,1554.0,2169.0,2184.0,13180318.0,
2010.0,1556.0,2157.0,2175.0,13180321.0,
2011.0,1555.0,2142.0,2154.0,13180325.0,
2010.0,1554.0,2123.0,2143.0,13180329.0,
2010.0,1554.0,2112.0,2129.0,13180332.0,
2011.0,1552.0,2097.0,2116.0,13180336.0,
2011.0,1560.0,2083.0,2106.0,13180339.0,
2011.0,1553.0,2069.0,2096.0,13180343.0,
2005.0,1553.0,2056.0,2089.0,13180347.0,
2010.0,1561.0,2044.0,2084.0,13180350.0,
2007.0,1555.0,2031.0,2082.0,13180354.0,
2010.0,1555.0,2020.0,2076.0,13180358.0,
2015.0,1555.0,2011.0,2078.0,13180361.0,
2011.0,1555.0,2001.0,2075.0,13180365.0,
2010.0,1554.0,1994.0,2078.0,13180369.0,
2011.0,1554.0,1986.0,2078.0,13180372.0,
2011.0,1553.0,1981.0,2077.0,13180376.0,
2011.0,1555.0,1975.0,2079.0,13180379.0,
2009.0,1554.0,1971.0,2079.0,13180383.0,
2011.0,1555.0,1968.0,2076.0,13180387.0,
2010.0,1554.0,1967.0,2075.0,13180390.0,
2011.0,1554.0,1966.0,2071.0,13180394.0,
2011.0,1555.0,1965.0,2066.0,13180398.0,
2010.0,1554.0,1968.0,2062.0,13180401.0,
2019.0,1555.0,1967.0,2063.0,13180405.0,
2011.0,1554.0,1968.0,2058.0,13180409.0,
2010.0,1553.0,1968.0,2056.0,13180412.0,
2010.0,1555.0,1970.0,2056.0,13180416.0,
2011.0,1554.0,1975.0,2051.0,13180419.0,
2010.0,1554.0,1977.0,2046.0,13180423.0,
2012.0,1553.0,1980.0,2042.0,13180427.0,
2012.0,1554.0,1986.0,2041.0,13180430.0,
2011.0,1556.0,1985.0,2039.0,13180434.0,
2010.0,1555.0,1988.0,2035.0,13180438.0,
2011.0,1554.0,1987.0,2036.0,13180441.0,
2010.0,1555.0,1992.0,2031.0,13180445.0,
2011.0,1558.0,1991.0,2029.0,13180448.0,
2015.0,1555.0,1993.0,2022.0,13180452.0,
2011.0,1555.0,1992.0,2017.0,13180456.0,
2011.0,1553.0,1994.0,2009.0,13180459.0,
2011.0,1557.0,1991.0,2004.0,13180463.0,
2010.0,1554.0,1989.0,1993.0,13180467.0,
2010.0,1555.0,1990.0,1986.0,13180470.0,
2010.0,1554.0,1989.0,1975.0,13180474.0,
2010.0,1555.0,1985.0,1966.0,13180478.0,
2010.0,1555.0,1982.0,1957.0,13180481.0,
2011.0,1554.0,1973.0,1947.0,13180485.0,
2011.0,1555.0,1976.0,1938.0,13180488.0,
2010.0,1550.0,1976.0,1932.0,13180492.0,
2011.0,1555.0,1972.0,1926.0,13180496.0,
2010.0,1555.0,1971.0,1920.0,13180499.0,
2010.0,1555.0,1963.0,1917.0,13180503.0,
2011.0,1555.0,1956.0,1914.0,13180507.0,
2011.0,1556.0,1950.0,1908.0,13180510.0,
2010.0,1556.0,1947.0,1900.0,13180514.0,
2010.0,1555.0,1942.0,1897.0,13180518.0,
2010.0,1555.0,1939.0,1894.0,13180521.0,
2010.0,1554.0,1934.0,1887.0,13180525.0,
2012.0,1557.0,1933.0,1883.0,13180528.0,
2010.0,1555.0,1930.0,1877.0,13180532.0,
2010.0,1555.0,1920.0,1868.0,13180536.0,
2010.0,1552.0,1916.0,1863.0,13180539.0,
2011.0,1556.0,1913.0,1855.0,13180543.0,
2010.0,1556.0,1908.0,1845.0,13180547.0,
2010.0,1556.0,1905.0,1841.0,13180550.0,
2010.0,1555.0,1899.0,1832.0,13180554.0,
2010.0,1556.0,1895.0,1821.0,13180558.0,
2010.0,1555.0,1891.0,1817.0,13180561.0,
2011.0,1555.0,1886.0,1815.0,13180565.0,
2011.0,1555.0,1881.0,1806.0,13180568.0,
2011.0,1555.0,1878.0,1806.0,13180572.0,
2010.0,1556.0,1875.0,1804.0,13180576.0,
2010.0,1555.0,1873.0,1803.0,13180579.0,
2009.0,1555.0,1866.0,1798.0,13180583.0,
2010.0,1556.0,1861.0,1796.0,13180587.0,
2013.0,1556.0,1858.0,1799.0,13180590.0,
2011.0,1556.0,1855.0,1795.0,13180594.0,
2010.0,1556.0,1850.0,1795.0,13180598.0,
2010.0,1555.0,1848.0,1796.0,13180601.0,
2010.0,1555.0,1844.0,1795.0,13180605.0,
2010.0,1557.0,1836.0,1796.0,13180608.0,
2010.0,1556.0,1840.0,1795.0,13180612.0,
2010.0,1556.0,1836.0,1795.0,13180616.0,
2011.0,1556.0,1839.0,1796.0,13180619.0,
2011.0,1556.0,1835.0,1794.0,13180623.0,
2010.0,1555.0,1832.0,1793.0,13180627.0,
2010.0,1557.0,1833.0,1793.0,13180630.0,
2010.0,1557.0,1836.0,1792.0,13180634.0,
2011.0,1558.0,1836.0,1792.0,13180637.0,
2011.0,1556.0,1833.0,1793.0,13180641.0,
2013.0,1557.0,1835.0,1794.0,13180645.0,
2011.0,1558.0,1836.0,1793.0,13180648.0,
2010.0,1557.0,1836.0,1793.0,13180652.0,
2010.0,1557.0,1838.0,1789.0,13180656.0,
2011.0,1556.0,1843.0,1793.0,13180659.0,
2011.0,1557.0,1844.0,1785.0,13180663.0,
2009.0,1554.0,1846.0,1779.0,13180667.0,
2010.0,1557.0,1849.0,1785.0,13180670.0,
2010.0,1559.0,1848.0,1782.0,13180674.0,
2010.0,1556.0,1851.0,1779.0,13180677.0,
2009.0,1557.0,1852.0,1776.0,13180681.0,
2011.0,1557.0,1852.0,1773.0,13180685.0,
2010.0,1558.0,1857.0,1770.0,13180688.0,
2010.0,1558.0,1857.0,1767.0,13180692.0,
2010.0,1558.0,1856.0,1760.0,13180696.0,
2010.0,1557.0,1857.0,1761.0,13180699.0,
2010.0,1557.0,1857.0,1755.0,13180703.0,
2011.0,1557.0,1861.0,1757.0,13180707.0,
2010.0,1557.0,1863.0,1751.0,13180710.0,
2011.0,1558.0,1864.0,1750.0,13180714.0,
2010.0,1557.0,1864.0,1747.0,13180717.0,
2011.0,1559.0,1861.0,1749.0,13180721.0,
2009.0,1558.0,1860.0,1745.0,13180725.0,
2010.0,1558.0,1860.0,1745.0,13180728.0,
2010.0,1558.0,1859.0,1743.0,13180732.0,
2010.0,1558.0,1857.0,1743.0,13180736.0,
2010.0,1556.0,1853.0,1738.0,13180739.0,
2010.0,1558.0,1851.0,1741.0,13180743.0,
2011.0,1559.0,1850.0,1737.0,13180747.0,
2010.0,1558.0,1849.0,1738.0,13180750.0,
2011.0,1559.0,1847.0,1734.0,13180754.0,
2010.0,1557.0,1845.0,1734.0,13180757.0,
2011.0,1560.0,1845.0,1730.0,13180761.0,
2011.0,1559.0,1845.0,1732.0,13180765.0,
2010.0,1558.0,1842.0,1730.0,13180768.0,
2010.0,1559.0,1843.0,1728.0,13180772.0,
2010.0,1557.0,1842.0,1725.0,13180776.0,
2010.0,1559.0,1841.0,1722.0,13180779.0,
2011.0,1558.0,1843.0,1721.0,13180783.0,
2011.0,1559.0,1842.0,1715.0,13180787.0,
2011.0,1559.0,1842.0,1713.0,13180790.0,
2008.0,1557.0,1842.0,1708.0,13180794.0,
2010.0,1558.0,1841.0,1706.0,13180797.0,
2011.0,1560.0,1843.0,1704.0,13180801.0,
2009.0,1559.0,1843.0,1707.0,13180805.0,
2009.0,1557.0,1843.0,1696.0,13180808.0,
2011.0,1558.0,1845.0,1690.0,13180812.0,
2011.0,1560.0,1848.0,1687.0,13180816.0,
2009.0,1559.0,1844.0,1684.0,13180819.0,
2010.0,1558.0,1845.0,1682.0,13180823.0,
2011.0,1559.0,1845.0,1678.0,13180827.0,
2010.0,1559.0,1841.0,1676.0,13180830.0,
2010.0,1560.0,1845.0,1675.0,13180834.0,
2013.0,1558.0,1844.0,1676.0,13180837.0,
2011.0,1560.0,1842.0,1677.0,13180841.0,
2011.0,1559.0,1841.0,1673.0,13180845.0,
2011.0,1560.0,1834.0,1673.0,13180848.0,
2011.0,1559.0,1841.0,1677.0,13180852.0,
2009.0,1559.0,1836.0,1674.0,13180856.0,
2010.0,1559.0,1833.0,1676.0,13180859.0,
2010.0,1558.0,1832.0,1676.0,13180863.0,
2011.0,1555.0,1831.0,1678.0,13180866.0,
2010.0,1557.0,1830.0,1680.0,13180870.0,
2010.0,1560.0,1829.0,1676.0,13180874.0,
2012.0,1560.0,1824.0,1680.0,13180877.0,
2009.0,1560.0,1822.0,1680.0,13180881.0,
2010.0,1560.0,1821.0,1681.0,13180885.0,
2011.0,1561.0,1822.0,1681.0,13180888.0,
2011.0,1560.0,1817.0,1681.0,13180892.0,
2010.0,1560.0,1821.0,1680.0,13180896.0,
2009.0,1560.0,1813.0,1682.0,13180899.0,
2010.0,1561.0,1821.0,1680.0,13180903.0,
2011.0,1560.0,1821.0,1680.0,13180906.0,
2010.0,1559.0,1827.0,1682.0,13180910.0,
2011.0,1560.0,1823.0,1678.0,13180914.0,
2010.0,1561.0,1824.0,1676.0,13180917.0,
2009.0,1561.0,1823.0,1673.0,13180921.0,
2010.0,1560.0,1823.0,1672.0,13180925.0,
2010.0,1560.0,1824.0,1669.0,13180928.0,
2010.0,1559.0,1826.0,1669.0,13180932.0,
2010.0,1561.0,1824.0,1665.0,13180936.0,
2010.0,1561.0,1825.0,1667.0,13180939.0,
2010.0,1562.0,1824.0,1665.0,13180943.0,
2011.0,1560.0,1822.0,1666.0,13180946.0,
2011.0,1561.0,1822.0,1663.0,13180950.0,
2010.0,1558.0,1820.0,1660.0,13180954.0,
2011.0,1558.0,1820.0,1661.0,13180957.0,
2010.0,1561.0,1819.0,1664.0,13180961.0,
2010.0,1562.0,1820.0,1661.0,13180965.0,
2010.0,1561.0,1820.0,1661.0,13180968.0,
2005.0,1560.0,1820.0,1658.0,13180972.0,
2012.0,1561.0,1819.0,1656.0,13180976.0,
2010.0,1560.0,1818.0,1658.0,13180979.0,
2010.0,1567.0,1818.0,1655.0,13180983.0,
2010.0,1561.0,1820.0,1660.0,13180986.0,
2010.0,1561.0,1819.0,1662.0,13180990.0,
2010.0,1559.0,1818.0,1664.0,13180994.0,
2011.0,1560.0,1822.0,1671.0,13180997.0,
2010.0,1560.0,1823.0,1679.0,13181001.0,
2009.0,1563.0,1817.0,1682.0,13181005.0,
2011.0,1561.0,1826.0,1693.0,13181008.0,
2010.0,1562.0,1830.0,1700.0,13181012.0,
2011.0,1563.0,1832.0,1720.0,13181015.0,
2010.0,1561.0,1835.0,1732.0,13181019.0,
2010.0,1561.0,1838.0,1747.0,13181023.0,
2010.0,1561.0,1840.0,1767.0,13181026.0,
2010.0,1561.0,1846.0,1789.0,13181030.0,
2010.0,1562.0,1851.0,1813.0,13181034.0,
2012.0,1561.0,1857.0,1838.0,13181037.0,
2010.0,1562.0,1869.0,1867.0,13181041.0,
2011.0,1561.0,1881.0,1897.0,13181045.0,
2010.0,1566.0,1897.0,1930.0,13181048.0,
2010.0,1562.0,1915.0,1960.0,13181052.0,
2011.0,1562.0,1934.0,1993.0,13181055.0,
2011.0,1562.0,1962.0,2024.0,13181059.0,
2010.0,1562.0,1985.0,2058.0,13181063.0,
2011.0,1560.0,2015.0,2087.0,13181066.0,
2011.0,1561.0,2051.0,2120.0,13181070.0,
2011.0,1561.0,2088.0,2151.0,13181074.0,
2011.0,1561.0,2128.0,2181.0,13181077.0,
2011.0,1560.0,2168.0,2210.0,13181081.0,
2011.0,1560.0,2211.0,2239.0,13181085.0,
2011.0,1561.0,2259.0,2263.0,13181088.0,
2010.0,1560.0,2306.0,2288.0,13181092.0,
2011.0,1561.0,2355.0,2310.0,13181095.0,
2011.0,1561.0,2403.0,2335.0,13181099.0,
2011.0,1560.0,2450.0,2352.0,13181103.0,
2011.0,1562.0,2498.0,2371.0,13181106.0,
2011.0,1561.0,2549.0,2387.0,13181110.0,
2011.0,1561.0,2591.0,2406.0,13181114.0,
2011.0,1561.0,2627.0,2416.0,13181117.0,
2011.0,1561.0,2675.0,2428.0,13181121.0,
2011.0,1561.0,2714.0,2440.0,13181125.0,
2011.0,1560.0,2745.0,2450.0,13181128.0,
2012.0,1561.0,2779.0,2457.0,13181132.0,
2011.0,1562.0,2806.0,2462.0,13181135.0,
2011.0,1561.0,2829.0,2470.0,13181139.0,
2012.0,1563.0,2846.0,2470.0,13181143.0,
2012.0,1562.0,2864.0,2472.0,13181146.0,
2012.0,1562.0,2875.0,2471.0,13181150.0,
2012.0,1561.0,2882.0,2470.0,13181154.0,
2012.0,1561.0,2885.0,2468.0,13181157.0,
2011.0,1563.0,2881.0,2468.0,13181161.0,
2010.0,1561.0,2877.0,2461.0,13181165.0,
2011.0,1562.0,2865.0,2457.0,13181168.0,
2012.0,1561.0,2855.0,2446.0,13181172.0,
2012.0,1562.0,2838.0,2445.0,13181175.0,
2012.0,1560.0,2824.0,2442.0,13181179.0,
2011.0,1561.0,2803.0,2436.0,13181183.0,
2012.0,1559.0,2785.0,2430.0,13181186.0,
2012.0,1563.0,2762.0,2426.0,13181190.0,
2012.0,1562.0,2740.0,2417.0,13181194.0,
2012.0,1563.0,2715.0,2410.0,13181197.0,
2012.0,1563.0,2690.0,2400.0,13181201.0,
2012.0,1561.0,2663.0,2392.0,13181205.0,
2012.0,1562.0,2634.0,2376.0,13181208.0,
2010.0,1560.0,2607.0,2372.0,13181212.0,
2012.0,1562.0,2579.0,2361.0,13181215.0,
2013.0,1563.0,2550.0,2354.0,13181219.0,
2021.0,1562.0,2525.0,2342.0,13181223.0,
2012.0,1560.0,2498.0,2333.0,13181226.0,
2011.0,1561.0,2473.0,2323.0,13181230.0,
2011.0,1563.0,2448.0,2311.0,13181234.0,
2006.0,1561.0,2427.0,2301.0,13181237.0,
2011.0,1562.0,2402.0,2291.0,13181241.0,
2012.0,1562.0,2379.0,2271.0,13181244.0,
2012.0,1562.0,2357.0,2263.0,13181248.0,
2012.0,1561.0,2337.0,2248.0,13181252.0,
2012.0,1560.0,2316.0,2234.0,13181255.0,
2013.0,1562.0,2298.0,2218.0,13181259.0,
2012.0,1563.0,2280.0,2206.0,13181263.0,
2012.0,1564.0,2263.0,2193.0,13181266.0,
2011.0,1564.0,2245.0,2176.0,13181270.0,
2012.0,1563.0,2230.0,2164.0,13181274.0,
2011.0,1563.0,2214.0,2152.0,13181277.0,
2012.0,1563.0,2199.0,2143.0,13181281.0,
2012.0,1562.0,2183.0,2126.0,13181284.0,
2012.0,1562.0,2170.0,2116.0,13181288.0,
2011.0,1563.0,2158.0,2104.0,13181292.0,
2012.0,1566.0,2140.0,2091.0,13181295.0,
2013.0,1563.0,2126.0,2082.0,13181299.0,
2015.0,1564.0,2110.0,2069.0,13181303.0,
2010.0,1563.0,2096.0,2055.0,13181306.0,
2011.0,1562.0,2083.0,2046.0,13181310.0,
2011.0,1562.0,2071.0,2041.0,13181314.0,
2009.0,1563.0,2060.0,2034.0,13181317.0,
2014.0,1562.0,2048.0,2030.0,13181321.0,
2012.0,1563.0,2038.0,2019.0,13181324.0,
2012.0,1561.0,2026.0,2015.0,13181328.0,
2012.0,1562.0,2017.0,2012.0,13181332.0,
2012.0,1565.0,2011.0,2004.0,13181335.0,
2012.0,1564.0,2000.0,1999.0,13181339.0,
2012.0,1562.0,1995.0,1997.0,13181343.0,
2012.0,1561.0,1989.0,1993.0,13181346.0,
2012.0,1560.0,1984.0,1993.0,13181350.0,
2012.0,1562.0,1981.0,1990.0,13181354.0,
2013.0,1562.0,1979.0,1989.0,13181357.0,
2011.0,1562.0,1974.0,1986.0,13181361.0,
2012.0,1562.0,1970.0,1985.0,13181364.0,
2008.0,1561.0,1975.0,1984.0,13181368.0,
2010.0,1563.0,1975.0,1983.0,13181372.0,
2012.0,1561.0,1971.0,1981.0,13181375.0,
2012.0,1562.0,1974.0,1985.0,13181379.0,
2012.0,1561.0,1975.0,1981.0,13181383.0,
2011.0,1560.0,1980.0,1982.0,13181386.0,
2012.0,1560.0,1983.0,1988.0,13181390.0,
2010.0,1561.0,1987.0,1987.0,13181394.0,
2012.0,1562.0,1990.0,1991.0,13181397.0,
2011.0,1562.0,1995.0,1991.0,13181401.0,
2012.0,1560.0,1999.0,1989.0,13181404.0,
2011.0,1561.0,1999.0,1987.0,13181408.0,
2012.0,1562.0,2004.0,1986.0,13181412.0,
2012.0,1559.0,2010.0,1987.0,13181415.0,
2012.0,1561.0,2014.0,1984.0,13181419.0,
2013.0,1560.0,2016.0,1984.0,13181423.0,
2012.0,1560.0,2018.0,1980.0,13181426.0,
2011.0,1561.0,2021.0,1977.0,13181430.0,
2012.0,1561.0,2020.0,1972.0,13181433.0,
2012.0,1559.0,2023.0,1969.0,13181437.0,
2012.0,1560.0,2024.0,1960.0,13181441.0,
2011.0,1559.0,2018.0,1953.0,13181444.0,
2012.0,1560.0,2025.0,1946.0,13181448.0,
2012.0,1557.0,2023.0,1938.0,13181452.0,
2012.0,1558.0,2021.0,1933.0,13181455.0,
2011.0,1558.0,2019.0,1933.0,13181459.0,
2011.0,1559.0,2018.0,1927.0,13181463.0,
2012.0,1559.0,2014.0,1921.0,13181466.0,
2012.0,1560.0,2013.0,1915.0,13181470.0,
2012.0,1558.0,2007.0,1906.0,13181473.0,
2012.0,1559.0,2002.0,1899.0,13181477.0,
2011.0,1554.0,1999.0,1892.0,13181481.0,
2013.0,1559.0,1994.0,1884.0,13181484.0,
2011.0,1560.0,1990.0,1878.0,13181488.0,
2012.0,1559.0,1980.0,1874.0,13181492.0,
2012.0,1559.0,1981.0,1867.0,13181495.0,
2011.0,1557.0,1972.0,1865.0,13181499.0,
2011.0,1558.0,1969.0,1858.0,13181503.0,
2011.0,1557.0,1956.0,1854.0,13181506.0,
2011.0,1559.0,1950.0,1849.0,13181510.0,
2012.0,1554.0,1940.0,1845.0,13181513.0,
2012.0,1559.0,1932.0,1837.0,13181517.0,
2011.0,1558.0,1922.0,1832.0,13181521.0,
2012.0,1557.0,1913.0,1827.0,13181524.0,
2010.0,1555.0,1904.0,1822.0,13181528.0,
2012.0,1557.0,1895.0,1818.0,13181532.0,
2012.0,1559.0,1887.0,1812.0,13181535.0,
2011.0,1560.0,1878.0,1809.0,13181539.0,
2012.0,1556.0,1873.0,1802.0,13181543.0,
2009.0,1557.0,1864.0,1800.0,13181546.0,
2011.0,1557.0,1859.0,1796.0,13181550.0,
2012.0,1557.0,1849.0,1790.0,13181553.0,
2012.0,1556.0,1846.0,1786.0,13181557.0,
2012.0,1558.0,1840.0,1785.0,13181561.0,
2012.0,1557.0,1831.0,1779.0,13181564.0,
2010.0,1558.0,1827.0,1778.0,13181568.0,
2007.0,1557.0,1826.0,1774.0,13181572.0,
2012.0,1558.0,1820.0,1772.0,13181575.0,
2012.0,1559.0,1819.0,1774.0,13181579.0,
2011.0,1558.0,1819.0,1773.0,13181583.0,
2011.0,1557.0,1815.0,1769.0,13181586.0,
2011.0,1557.0,1814.0,1771.0,13181590.0,
2010.0,1556.0,1812.0,1767.0,13181593.0,
2012.0,1557.0,1815.0,1764.0,13181597.0,
2011.0,1557.0,1815.0,1763.0,13181601.0,
2011.0,1557.0,1817.0,1756.0,13181604.0,
2012.0,1557.0,1818.0,1759.0,13181608.0,
2012.0,1556.0,1822.0,1756.0,13181612.0,
2012.0,1557.0,1824.0,1754.0,13181615.0,
2013.0,1557.0,1827.0,1753.0,13181619.0,
2012.0,1558.0,1828.0,1753.0,13181622.0,
2010.0,1556.0,1832.0,1750.0,13181626.0,
2010.0,1556.0,1835.0,1755.0,13181630.0,
2011.0,1556.0,1838.0,1753.0,13181633.0,
2011.0,1557.0,1842.0,1750.0,13181637.0,
2011.0,1557.0,1842.0,1758.0,13181641.0,
2012.0,1557.0,1845.0,1749.0,13181644.0,
2011.0,1556.0,1848.0,1755.0,13181648.0,
2012.0,1556.0,1848.0,1755.0,13181652.0,
2008.0,1557.0,1852.0,1754.0,13181655.0,
2012.0,1557.0,1855.0,1754.0,13181659.0,
2011.0,1558.0,1858.0,1753.0,13181662.0,
2011.0,1556.0,1861.0,1752.0,13181666.0,
2011.0,1558.0,1865.0,1750.0,13181670.0,
2011.0,1557.0,1864.0,1748.0,13181673.0,
2012.0,1557.0,1871.0,1745.0,13181677.0,
2012.0,1553.0,1873.0,1748.0,13181681.0,
2011.0,1558.0,1873.0,1746.0,13181684.0,
2011.0,1555.0,1873.0,1744.0,13181688.0,
2011.0,1555.0,1875.0,1744.0,13181692.0,
2012.0,1552.0,1874.0,1742.0,13181695.0,
2012.0,1557.0,1873.0,1739.0,13181699.0,
2011.0,1556.0,1874.0,1741.0,13181702.0,
2011.0,1557.0,1874.0,1735.0,13181706.0,
2009.0,1555.0,1875.0,1734.0,13181710.0,
2012.0,1555.0,1874.0,1735.0,13181713.0,
2012.0,1556.0,1878.0,1734.0,13181717.0,
2014.0,1557.0,1873.0,1733.0,13181721.0,
2011.0,1556.0,1874.0,1730.0,13181724.0,
2012.0,1555.0,1873.0,1730.0,13181728.0,
2007.0,1558.0,1872.0,1728.0,13181732.0,
2011.0,1556.0,1871.0,1727.0,13181735.0,
2011.0,1555.0,1869.0,1724.0,13181739.0,
2014.0,1555.0,1866.0,1723.0,13181742.0,
2012.0,1554.0,1866.0,1724.0,13181746.0,
2012.0,1555.0,1864.0,1726.0,13181750.0,
2011.0,1557.0,1861.0,1726.0,13181753.0,
2008.0,1555.0,1860.0,1727.0,13181757.0,
2017.0,1555.0,1861.0,1728.0,13181761.0,
2012.0,1556.0,1856.0,1726.0,13181764.0,
2013.0,1555.0,1856.0,1735.0,13181768.0,
2011.0,1555.0,1864.0,1734.0,13181772.0,
2012.0,1555.0,1852.0,1740.0,13181775.0,
2012.0,1555.0,1852.0,1739.0,13181779.0,
2011.0,1555.0,1851.0,1739.0,13181782.0,
2012.0,1556.0,1844.0,1741.0,13181786.0,
2011.0,1556.0,1842.0,1737.0,13181790.0,
2008.0,1555.0,1842.0,1735.0,13181793.0,
2011.0,1556.0,1841.0,1731.0,13181797.0,
2011.0,1557.0,1840.0,1731.0,13181801.0,
2011.0,1557.0,1838.0,1728.0,13181804.0,
2011.0,1554.0,1839.0,1727.0,13181808.0,
2012.0,1555.0,1836.0,1726.0,13181811.0,
2011.0,1555.0,1835.0,1722.0,13181815.0,
2012.0,1556.0,1838.0,1720.0,13181819.0,
2011.0,1554.0,1836.0,1716.0,13181822.0,
2012.0,1555.0,1838.0,1712.0,13181826.0,
2011.0,1555.0,1836.0,1708.0,13181830.0,
2012.0,1554.0,1835.0,1704.0,13181833.0,
2012.0,1555.0,1839.0,1703.0,13181837.0,
2012.0,1554.0,1837.0,1700.0,13181841.0,
2013.0,1554.0,1839.0,1691.0,13181844.0,
2011.0,1555.0,1839.0,1690.0,13181848.0,
2013.0,1551.0,1839.0,1687.0,13181851.0,
2012.0,1554.0,1841.0,1682.0,13181855.0,
2011.0,1555.0,1839.0,1678.0,13181859.0,
2012.0,1555.0,1841.0,1678.0,13181862.0,
2011.0,1553.0,1838.0,1676.0,13181866.0,
2011.0,1554.0,1839.0,1676.0,13181870.0,
2007.0,1554.0,1840.0,1677.0,13181873.0,
2011.0,1553.0,1839.0,1677.0,13181877.0,
2010.0,1554.0,1840.0,1679.0,13181881.0,
2011.0,1555.0,1840.0,1682.0,13181884.0,
2012.0,1554.0,1838.0,1685.0,13181888.0,
2012.0,1553.0,1838.0,1688.0,13181891.0,
2011.0,1554.0,1835.0,1688.0,13181895.0,
2012.0,1552.0,1836.0,1689.0,13181899.0,
2010.0,1554.0,1832.0,1690.0,13181902.0,
2012.0,1555.0,1832.0,1689.0,13181906.0,
2012.0,1554.0,1830.0,1687.0,13181910.0,
2011.0,1555.0,1828.0,1688.0,13181913.0,
2012.0,1553.0,1826.0,1692.0,13181917.0,
2012.0,1554.0,1829.0,1693.0,13181921.0,
2012.0,1554.0,1828.0,1693.0,13181924.0,
2012.0,1553.0,1827.0,1697.0,13181928.0,
2012.0,1550.0,1829.0,1698.0,13181931.0,
2012.0,1556.0,1829.0,1701.0,13181935.0,
2012.0,1554.0,1831.0,1700.0,13181939.0,
2012.0,1554.0,1830.0,1701.0,13181942.0,
2011.0,1554.0,1831.0,1704.0,13181946.0,
2011.0,1554.0,1829.0,1712.0,13181950.0,
2012.0,1555.0,1829.0,1714.0,13181953.0,
2012.0,1553.0,1830.0,1725.0,13181957.0,
2011.0,1554.0,1826.0,1733.0,13181961.0,
2011.0,1552.0,1828.0,1738.0,13181964.0,
2012.0,1554.0,1826.0,1750.0,13181968.0,
2012.0,1553.0,1828.0,1763.0,13181971.0,
2011.0,1554.0,1832.0,1774.0,13181975.0,
2012.0,1554.0,1837.0,1792.0,13181979.0,
2012.0,1554.0,1840.0,1808.0,13181982.0,
2011.0,1554.0,1847.0,1828.0,13181986.0,
2018.0,1553.0,1858.0,1851.0,13181990.0,
2013.0,1551.0,1871.0,1872.0,13181993.0,
2012.0,1551.0,1885.0,1896.0,13181997.0,
2011.0,1555.0,1901.0,1920.0,13182000.0,
2013.0,1553.0,1920.0,1945.0,13182004.0,
2011.0,1554.0,1945.0,1976.0,13182008.0,
2012.0,1552.0,1971.0,1999.0,13182011.0,
2012.0,1555.0,1999.0,2034.0,13182015.0,
2012.0,1553.0,2033.0,2065.0,13182019.0,
2012.0,1553.0,2064.0,2092.0,13182022.0,
2013.0,1555.0,2100.0,2121.0,13182026.0,
2012.0,1554.0,2140.0,2150.0,13182030.0,
2012.0,1554.0,2183.0,2179.0,13182033.0,
2014.0,1555.0,2225.0,2203.0,13182037.0,
2011.0,1551.0,2270.0,2230.0,13182040.0,
2014.0,1555.0,2315.0,2253.0,13182044.0,
2011.0,1555.0,2364.0,2278.0,13182048.0,
2012.0,1555.0,2410.0,2298.0,13182051.0,
2011.0,1553.0,2459.0,2315.0,13182055.0,
2014.0,1555.0,2509.0,2338.0,13182059.0,
2012.0,1555.0,2553.0,2351.0,13182062.0,
2012.0,1554.0,2598.0,2365.0,13182066.0,
2014.0,1556.0,2644.0,2378.0,13182070.0,
2010.0,1555.0,2683.0,2385.0,13182073.0,
2012.0,1553.0,2720.0,2390.0,13182077.0,
2013.0,1554.0,2752.0,2394.0,13182080.0,
2013.0,1554.0,2784.0,2394.0,13182084.0,
2013.0,1555.0,2812.0,2394.0,13182088.0,
2012.0,1555.0,2835.0,2396.0,13182091.0,
2013.0,1552.0,2853.0,2394.0,13182095.0,
2012.0,1555.0,2865.0,2398.0,13182099.0,
2012.0,1552.0,2875.0,2397.0,13182102.0,
2012.0,1561.0,2883.0,2393.0,13182106.0,
2013.0,1554.0,2884.0,2395.0,13182110.0,
2013.0,1554.0,2882.0,2381.0,13182113.0,
2012.0,1555.0,2878.0,2384.0,13182117.0,
2013.0,1553.0,2870.0,2380.0,13182120.0,
2012.0,1553.0,2859.0,2374.0,13182124.0,
2013.0,1554.0,2848.0,2368.0,13182128.0,
2013.0,1555.0,2831.0,2360.0,13182131.0,
2013.0,1555.0,2810.0,2354.0,13182135.0,
2012.0,1553.0,2789.0,2345.0,13182139.0,
2013.0,1555.0,2769.0,2335.0,13182142.0,
2013.0,1555.0,2745.0,2328.0,13182146.0,
2017.0,1555.0,2722.0,2316.0,13182150.0,
2013.0,1553.0,2696.0,2308.0,13182153.0,
2014.0,1555.0,2670.0,2301.0,13182157.0,
2016.0,1554.0,2645.0,2295.0,13182160.0,
2013.0,1555.0,2617.0,2286.0,13182164.0,
2012.0,1555.0,2588.0,2279.0,13182168.0,
2012.0,1555.0,2555.0,2270.0,13182171.0,
2012.0,1556.0,2536.0,2260.0,13182175.0,
2013.0,1554.0,2511.0,2252.0,13182179.0,
2012.0,1556.0,2489.0,2245.0,13182182.0,
2013.0,1556.0,2463.0,2235.0,13182186.0,
2013.0,1554.0,2442.0,2228.0,13182190.0,
2013.0,1555.0,2419.0,2220.0,13182193.0,
2013.0,1555.0,2401.0,2210.0,13182197.0,
2014.0,1554.0,2379.0,2203.0,13182200.0,
2014.0,1554.0,2361.0,2193.0,13182204.0,
2014.0,1554.0,2339.0,2183.0,13182208.0,
2013.0,1554.0,2323.0,2177.0,13182211.0,
2012.0,1555.0,2305.0,2166.0,13182215.0,
2013.0,1553.0,2290.0,2157.0,13182219.0,
2013.0,1553.0,2275.0,2148.0,13182222.0,
2012.0,1555.0,2260.0,2139.0,13182226.0,
2013.0,1555.0,2243.0,2131.0,13182229.0,
2012.0,1552.0,2228.0,2122.0,13182233.0,
2012.0,1555.0,2213.0,2113.0,13182237.0,
2013.0,1554.0,2198.0,2105.0,13182240.0,
2012.0,1554.0,2182.0,2094.0,13182244.0,
2012.0,1553.0,2164.0,2088.0,13182248.0,
2013.0,1556.0,2152.0,2079.0,13182251.0,
2013.0,1554.0,2137.0,2067.0,13182255.0,
2014.0,1553.0,2125.0,2060.0,13182259.0,
2013.0,1554.0,2112.0,2046.0,13182262.0,
2012.0,1553.0,2100.0,2043.0,13182266.0,
2013.0,1555.0,2086.0,2039.0,13182269.0,
2013.0,1559.0,2073.0,2030.0,13182273.0,
2008.0,1552.0,2061.0,2023.0,13182277.0,
2013.0,1554.0,2050.0,2015.0,13182280.0,
2014.0,1553.0,2036.0,2011.0,13182284.0,
2013.0,1553.0,2030.0,2007.0,13182288.0,
2013.0,1550.0,2020.0,2004.0,13182291.0,
2012.0,1550.0,2009.0,1995.0,13182295.0,
2013.0,1555.0,2000.0,1993.0,13182299.0,
2014.0,1551.0,1994.0,1987.0,13182302.0,
2013.0,1555.0,1987.0,1984.0,13182306.0,
2013.0,1554.0,1980.0,1981.0,13182309.0,
2013.0,1554.0,1977.0,1978.0,13182313.0,
2013.0,1555.0,1972.0,1972.0,13182317.0,
2013.0,1554.0,1967.0,1964.0,13182320.0,
2011.0,1554.0,1964.0,1965.0,13182324.0,
2013.0,1553.0,1958.0,1963.0,13182328.0,
2013.0,1554.0,1961.0,1958.0,13182331.0,
2013.0,1553.0,1959.0,1957.0,13182335.0,
2013.0,1554.0,1965.0,1953.0,13182339.0,
2013.0,1553.0,1964.0,1951.0,13182342.0,
2013.0,1550.0,1965.0,1948.0,13182346.0,
2013.0,1552.0,1968.0,1944.0,13182349.0,
2010.0,1553.0,1973.0,1941.0,13182353.0,
2013.0,1554.0,1977.0,1941.0,13182357.0,
2013.0,1554.0,1979.0,1938.0,13182360.0,
2012.0,1554.0,1984.0,1933.0,13182364.0,
2014.0,1553.0,1990.0,1935.0,13182368.0,
2012.0,1552.0,1993.0,1929.0,13182371.0,
2012.0,1553.0,1998.0,1928.0,13182375.0,
2013.0,1552.0,2001.0,1927.0,13182379.0,
2012.0,1552.0,2004.0,1919.0,13182382.0,
2013.0,1554.0,2007.0,1916.0,13182386.0,
2012.0,1554.0,2011.0,1914.0,13182389.0,
2013.0,1554.0,2013.0,1910.0,13182393.0,
2013.0,1553.0,2016.0,1904.0,13182397.0,
2012.0,1554.0,2018.0,1901.0,13182400.0,
2013.0,1553.0,2020.0,1902.0,13182404.0,
2012.0,1553.0,2020.0,1892.0,13182408.0,
2013.0,1555.0,2018.0,1891.0,13182411.0,
2012.0,1557.0,2018.0,1888.0,13182415.0,
2012.0,1554.0,2016.0,1886.0,13182418.0,
2013.0,1554.0,2010.0,1879.0,13182422.0,
2012.0,1555.0,2008.0,1873.0,13182426.0,
2013.0,1554.0,2005.0,1872.0,13182429.0,
2013.0,1553.0,1995.0,1869.0,13182433.0,
2012.0,1554.0,1992.0,1864.0,13182437.0,
2013.0,1556.0,1989.0,1859.0,13182440.0,
2012.0,1553.0,1983.0,1852.0,13182444.0,
2012.0,1553.0,1980.0,1850.0,13182448.0,
2012.0,1554.0,1974.0,1847.0,13182451.0,
2012.0,1555.0,1968.0,1845.0,13182455.0,
2012.0,1552.0,1960.0,1842.0,13182458.0,
2014.0,1553.0,1952.0,1837.0,13182462.0,
2013.0,1554.0,1941.0,1837.0,13182466.0,
2013.0,1553.0,1937.0,1837.0,13182469.0,
2012.0,1552.0,1926.0,1838.0,13182473.0,
2012.0,1552.0,1918.0,1835.0,13182477.0,
2013.0,1554.0,1909.0,1836.0,13182480.0,
2014.0,1552.0,1901.0,1829.0,13182484.0,
2013.0,1554.0,1894.0,1830.0,13182488.0,
2012.0,1553.0,1885.0,1826.0,13182491.0,
2008.0,1554.0,1877.0,1824.0,13182495.0,
2013.0,1553.0,1871.0,1824.0,13182498.0,
2013.0,1553.0,1865.0,1819.0,13182502.0,
2013.0,1554.0,1859.0,1816.0,13182506.0,
2012.0,1554.0,1850.0,1815.0,13182509.0,
2012.0,1554.0,1852.0,1812.0,13182513.0,
2012.0,1553.0,1849.0,1810.0,13182517.0,
2013.0,1553.0,1848.0,1810.0,13182520.0,
2012.0,1553.0,1845.0,1806.0,13182524.0,
2013.0,1553.0,1843.0,1809.0,13182528.0,
2012.0,1555.0,1839.0,1807.0,13182531.0,
2013.0,1554.0,1837.0,1805.0,13182535.0,
2012.0,1553.0,1837.0,1806.0,13182538.0,
2013.0,1554.0,1836.0,1807.0,13182542.0,
2012.0,1553.0,1835.0,1807.0,13182546.0,
2013.0,1553.0,1838.0,1809.0,13182549.0,
2013.0,1553.0,1835.0,1816.0,13182553.0,
2013.0,1554.0,1838.0,1809.0,13182557.0,
2012.0,1554.0,1836.0,1809.0,13182560.0,
2013.0,1553.0,1834.0,1805.0,13182564.0,
2013.0,1555.0,1836.0,1805.0,13182568.0,
2012.0,1554.0,1831.0,1799.0,13182571.0,
2013.0,1553.0,1836.0,1799.0,13182575.0,
2012.0,1553.0,1838.0,1794.0,13182578.0,
2013.0,1553.0,1836.0,1790.0,13182582.0,
2013.0,1554.0,1837.0,1786.0,13182586.0,
2012.0,1553.0,1841.0,1785.0,13182589.0,
2012.0,1552.0,1842.0,1778.0,13182593.0,
2013.0,1552.0,1844.0,1780.0,13182597.0,
2013.0,1552.0,1846.0,1784.0,13182600.0,
2013.0,1552.0,1847.0,1774.0,13182604.0,
2013.0,1552.0,1848.0,1778.0,13182607.0,
2012.0,1554.0,1850.0,1774.0,13182611.0,
2012.0,1551.0,1851.0,1771.0,13182615.0,
2012.0,1554.0,1853.0,1772.0,13182618.0,
2012.0,1552.0,1852.0,1771.0,13182622.0,
2012.0,1553.0,1852.0,1768.0,13182626.0,
2012.0,1553.0,1851.0,1773.0,13182629.0,
2013.0,1553.0,1853.0,1772.0,13182633.0,
2018.0,1554.0,1849.0,1772.0,13182637.0,
2013.0,1552.0,1849.0,1771.0,13182640.0,
2012.0,1553.0,1849.0,1772.0,13182644.0,
2012.0,1553.0,1849.0,1768.0,13182647.0,
2012.0,1553.0,1853.0,1771.0,13182651.0,
2012.0,1550.0,1852.0,1769.0,13182655.0,
2013.0,1553.0,1849.0,1770.0,13182658.0,
2013.0,1554.0,1851.0,1769.0,13182662.0,
2013.0,1554.0,1852.0,1767.0,13182666.0,
2012.0,1553.0,1853.0,1767.0,13182669.0,
2013.0,1553.0,1851.0,1762.0,13182673.0,
2012.0,1551.0,1849.0,1759.0,13182677.0,
2012.0,1553.0,1848.0,1757.0,13182680.0,
2012.0,1551.0,1853.0,1751.0,13182684.0,
2013.0,1552.0,1850.0,1748.0,13182687.0,
2013.0,1553.0,1847.0,1747.0,13182691.0,
2013.0,1554.0,1849.0,1741.0,13182695.0,
2012.0,1555.0,1847.0,1749.0,13182698.0,
2012.0,1553.0,1844.0,1748.0,13182702.0,
2012.0,1552.0,1843.0,1752.0,13182706.0,
2012.0,1554.0,1843.0,1748.0,13182709.0,
2014.0,1553.0,1840.0,1746.0,13182713.0,
2012.0,1552.0,1841.0,1744.0,13182717.0,
2010.0,1553.0,1841.0,1743.0,13182720.0,
2012.0,1553.0,1839.0,1739.0,13182724.0,
2011.0,1553.0,1839.0,1742.0,13182727.0,
2012.0,1552.0,1835.0,1740.0,13182731.0,
2013.0,1552.0,1834.0,1737.0,13182735.0,
2012.0,1552.0,1830.0,1737.0,13182738.0,
2013.0,1552.0,1829.0,1738.0,13182742.0,
2012.0,1555.0,1823.0,1739.0,13182746.0,
2011.0,1554.0,1823.0,1735.0,13182749.0,
2013.0,1553.0,1820.0,1737.0,13182753.0,
2012.0,1554.0,1818.0,1735.0,13182757.0,
2012.0,1554.0,1819.0,1740.0,13182760.0,
2012.0,1553.0,1816.0,1735.0,13182764.0,
2013.0,1553.0,1819.0,1739.0,13182767.0,
2013.0,1554.0,1816.0,1740.0,13182771.0,
2012.0,1553.0,1819.0,1737.0,13182775.0,
2013.0,1552.0,1819.0,1745.0,13182778.0,
2013.0,1552.0,1820.0,1745.0,13182782.0,
2013.0,1552.0,1822.0,1743.0,13182786.0,
2014.0,1551.0,1824.0,1745.0,13182789.0,
2013.0,1553.0,1827.0,1745.0,13182793.0,
2013.0,1554.0,1825.0,1744.0,13182796.0,
2013.0,1553.0,1826.0,1751.0,13182800.0,
2013.0,1552.0,1827.0,1745.0,13182804.0,
2013.0,1551.0,1825.0,1745.0,13182807.0,
2013.0,1553.0,1824.0,1742.0,13182811.0,
2013.0,1553.0,1824.0,1739.0,13182815.0,
2012.0,1552.0,1823.0,1738.0,13182818.0,
2011.0,1552.0,1823.0,1733.0,13182822.0,
2012.0,1553.0,1824.0,1732.0,13182826.0,
2012.0,1552.0,1824.0,1727.0,13182829.0,
2013.0,1553.0,1824.0,1730.0,13182833.0,
2010.0,1552.0,1824.0,1731.0,13182836.0,
2013.0,1552.0,1826.0,1729.0,13182840.0,
2011.0,1554.0,1826.0,1725.0,13182844.0,
2012.0,1553.0,1824.0,1728.0,13182847.0,
2013.0,1554.0,1823.0,1733.0,13182851.0,
2012.0,1552.0,1825.0,1732.0,13182855.0,
2013.0,1552.0,1823.0,1737.0,13182858.0,
2012.0,1552.0,1824.0,1734.0,13182862.0,
2012.0,1553.0,1824.0,1739.0,13182866.0,
2013.0,1554.0,1826.0,1732.0,13182869.0,
2013.0,1552.0,1825.0,1732.0,13182873.0,
2013.0,1552.0,1825.0,1728.0,13182876.0,
2012.0,1553.0,1825.0,1729.0,13182880.0,
2012.0,1552.0,1827.0,1720.0,13182884.0,
2012.0,1553.0,1825.0,1725.0,13182887.0,
2010.0,1553.0,1826.0,1722.0,13182891.0,
2013.0,1552.0,1828.0,1718.0,13182895.0,
2012.0,1552.0,1828.0,1721.0,13182898.0,
2013.0,1553.0,1825.0,1717.0,13182902.0,
2011.0,1553.0,1827.0,1714.0,13182906.0,
2013.0,1552.0,1828.0,1715.0,13182909.0,
2012.0,1552.0,1829.0,1712.0,13182913.0,
2013.0,1553.0,1827.0,1711.0,13182916.0,
2014.0,1553.0,1828.0,1707.0,13182920.0,
2009.0,1553.0,1827.0,1707.0,13182924.0,
2013.0,1551.0,1828.0,1706.0,13182927.0,
2012.0,1551.0,1826.0,1711.0,13182931.0,
2013.0,1551.0,1829.0,1709.0,13182935.0,
2012.0,1553.0,1827.0,1714.0,13182938.0,
2012.0,1553.0,1828.0,1720.0,13182942.0,
2013.0,1554.0,1826.0,1727.0,13182946.0,
2012.0,1552.0,1826.0,1739.0,13182949.0,
2013.0,1552.0,1827.0,1751.0,13182953.0,
2012.0,1554.0,1828.0,1766.0,13182956.0,
2012.0,1554.0,1831.0,1780.0,13182960.0,
2013.0,1553.0,1835.0,1796.0,13182964.0,
2012.0,1553.0,1840.0,1816.0,13182967.0,
2013.0,1553.0,1844.0,1834.0,13182971.0,
2013.0,1551.0,1855.0,1854.0,13182975.0,
2011.0,1553.0,1862.0,1876.0,13182978.0,
2013.0,1554.0,1878.0,1897.0,13182982.0,
2012.0,1553.0,1894.0,1927.0,13182986.0,
2013.0,1554.0,1909.0,1951.0,13182989.0,
2013.0,1553.0,1930.0,1977.0,13182993.0,
2013.0,1554.0,1951.0,2004.0,13182996.0,
2013.0,1554.0,1979.0,2032.0,13183000.0,
2012.0,1552.0,2008.0,2062.0,13183004.0,
2013.0,1554.0,2038.0,2089.0,13183007.0,
2012.0,1555.0,2075.0,2116.0,13183011.0,
2013.0,1553.0,2113.0,2142.0,13183015.0,
2014.0,1554.0,2154.0,2169.0,13183018.0,
2011.0,1554.0,2197.0,2195.0,13183022.0,
2014.0,1555.0,2241.0,2221.0,13183025.0,
2014.0,1554.0,2292.0,2244.0,13183029.0,
2013.0,1553.0,2339.0,2264.0,13183033.0,
2012.0,1552.0,2391.0,2284.0,13183036.0,
2014.0,1555.0,2441.0,2310.0,13183040.0,
2013.0,1555.0,2492.0,2328.0,13183044.0,
2014.0,1554.0,2542.0,2349.0,13183047.0,
2013.0,1552.0,2590.0,2364.0,13183051.0,
2016.0,1554.0,2638.0,2379.0,13183055.0,
2014.0,1553.0,2687.0,2390.0,13183058.0,
2014.0,1553.0,2731.0,2400.0,13183062.0,
2014.0,1554.0,2771.0,2411.0,13183065.0,
2014.0,1552.0,2810.0,2419.0,13183069.0,
2015.0,1553.0,2848.0,2423.0,13183073.0,
2014.0,1552.0,2878.0,2427.0,13183076.0,
2015.0,1554.0,2908.0,2431.0,13183080.0,
2014.0,1554.0,2929.0,2430.0,13183084.0,
2021.0,1553.0,2952.0,2432.0,13183087.0,
2014.0,1554.0,2966.0,2433.0,13183091.0,
2014.0,1554.0,2981.0,2431.0,13183095.0,
2013.0,1552.0,2990.0,2432.0,13183098.0,
2014.0,1554.0,2992.0,2427.0,13183102.0,
2014.0,1553.0,2992.0,2424.0,13183105.0,
2014.0,1554.0,2987.0,2422.0,13183109.0,
2012.0,1555.0,2981.0,2415.0,13183113.0,
2013.0,1555.0,2970.0,2410.0,13183116.0,
2014.0,1553.0,2955.0,2405.0,13183120.0,
2014.0,1555.0,2941.0,2397.0,13183124.0,
2014.0,1554.0,2922.0,2391.0,13183127.0,
2014.0,1552.0,2902.0,2386.0,13183131.0,
2014.0,1553.0,2878.0,2380.0,13183135.0,
2014.0,1555.0,2851.0,2369.0,13183138.0,
2013.0,1553.0,2825.0,2363.0,13183142.0,
2015.0,1554.0,2801.0,2356.0,13183145.0,
2013.0,1550.0,2774.0,2345.0,13183149.0,
2014.0,1554.0,2746.0,2340.0,13183153.0,
2014.0,1554.0,2720.0,2330.0,13183156.0,
2014.0,1553.0,2693.0,2317.0,13183160.0,
2014.0,1554.0,2667.0,2315.0,13183164.0,
2014.0,1556.0,2642.0,2306.0,13183167.0,
2014.0,1553.0,2618.0,2296.0,13183171.0,
2013.0,1553.0,2590.0,2286.0,13183175.0,
2014.0,1554.0,2567.0,2276.0,13183178.0,
2014.0,1554.0,2545.0,2266.0,13183182.0,
2014.0,1553.0,2525.0,2255.0,13183185.0,
2015.0,1553.0,2503.0,2246.0,13183189.0,
2014.0,1554.0,2483.0,2234.0,13183193.0,
2014.0,1553.0,2464.0,2227.0,13183196.0,
2014.0,1552.0,2444.0,2216.0,13183200.0,
2014.0,1553.0,2425.0,2204.0,13183204.0,
2014.0,1553.0,2411.0,2195.0,13183207.0,
2014.0,1554.0,2393.0,2186.0,13183211.0,
2014.0,1553.0,2376.0,2174.0,13183215.0,
2014.0,1552.0,2360.0,2160.0,13183218.0,
2014.0,1553.0,2344.0,2158.0,13183222.0,
2014.0,1553.0,2329.0,2156.0,13183225.0,
2014.0,1552.0,2316.0,2143.0,13183229.0,
2013.0,1553.0,2300.0,2126.0,13183233.0,
2014.0,1552.0,2284.0,2118.0,13183236.0,
2015.0,1553.0,2271.0,2110.0,13183240.0,
2015.0,1553.0,2255.0,2097.0,13183244.0,
2014.0,1552.0,2240.0,2091.0,13183247.0,
2014.0,1552.0,2226.0,2084.0,13183251.0,
2015.0,1553.0,2210.0,2076.0,13183254.0,
2015.0,1553.0,2195.0,2069.0,13183258.0,
2015.0,1553.0,2181.0,2063.0,13183262.0,
2013.0,1553.0,2165.0,2058.0,13183265.0,
2014.0,1552.0,2152.0,2053.0,13183269.0,
2014.0,1552.0,2137.0,2048.0,13183273.0,
2014.0,1552.0,2123.0,2045.0,13183276.0,
2013.0,1551.0,2108.0,2039.0,13183280.0,
2013.0,1553.0,2093.0,2031.0,13183284.0,
2014.0,1552.0,2078.0,2028.0,13183287.0,
2014.0,1553.0,2066.0,2020.0,13183291.0,
2013.0,1551.0,2055.0,2018.0,13183294.0,
2014.0,1550.0,2043.0,2015.0,13183298.0,
2015.0,1551.0,2034.0,2007.0,13183302.0,
2013.0,1552.0,2027.0,2010.0,13183305.0,
2014.0,1552.0,2020.0,2008.0,13183309.0,
2013.0,1552.0,2013.0,2006.0,13183313.0,
2013.0,1552.0,2010.0,2007.0,13183316.0,
2014.0,1551.0,2005.0,2007.0,13183320.0,
2015.0,1552.0,2006.0,2007.0,13183324.0,
2014.0,1552.0,2004.0,2010.0,13183327.0,
2014.0,1552.0,2003.0,2005.0,13183331.0,
2013.0,1549.0,2003.0,2007.0,13183334.0,
2013.0,1552.0,2002.0,2006.0,13183338.0,
2014.0,1552.0,2005.0,2003.0,13183342.0,
2014.0,1552.0,2003.0,2002.0,13183345.0,
2014.0,1552.0,2005.0,2000.0,13183349.0,
2014.0,1551.0,2003.0,1995.0,13183353.0,
2014.0,1552.0,2006.0,1993.0,13183356.0,
2014.0,1554.0,2006.0,1987.0,13183360.0,
2014.0,1551.0,2007.0,1984.0,13183364.0,
2013.0,1552.0,2011.0,1977.0,13183367.0,
2015.0,1552.0,2011.0,1976.0,13183371.0,
2014.0,1551.0,2014.0,1970.0,13183374.0,
2014.0,1552.0,2017.0,1968.0,13183378.0,
2014.0,1552.0,2019.0,1962.0,13183382.0,
2013.0,1552.0,2021.0,1956.0,13183385.0,
2014.0,1556.0,2024.0,1953.0,13183389.0,
2016.0,1551.0,2026.0,1943.0,13183393.0,
2013.0,1552.0,2028.0,1937.0,13183396.0,
2011.0,1553.0,2030.0,1926.0,13183400.0,
2014.0,1551.0,2029.0,1920.0,13183404.0,
2014.0,1553.0,2029.0,1911.0,13183407.0,
2013.0,1552.0,2029.0,1906.0,13183411.0,
2014.0,1552.0,2032.0,1901.0,13183414.0,
2013.0,1553.0,2030.0,1900.0,13183418.0,
2014.0,1552.0,2028.0,1893.0,13183422.0,
2014.0,1552.0,2030.0,1891.0,13183425.0,
2014.0,1551.0,2024.0,1890.0,13183429.0,
2013.0,1551.0,2022.0,1883.0,13183433.0,
2013.0,1551.0,2019.0,1882.0,13183436.0,
2013.0,1552.0,2015.0,1876.0,13183440.0,
2013.0,1551.0,2011.0,1873.0,13183443.0,
2013.0,1552.0,2005.0,1871.0,13183447.0,
2014.0,1551.0,1999.0,1864.0,13183451.0,
2015.0,1553.0,1995.0,1859.0,13183454.0,
2013.0,1552.0,1986.0,1856.0,13183458.0,
2013.0,1552.0,1978.0,1852.0,13183462.0,
2015.0,1550.0,1973.0,1846.0,13183465.0,
2013.0,1551.0,1964.0,1844.0,13183469.0,
2014.0,1556.0,1958.0,1840.0,13183473.0,
2014.0,1551.0,1950.0,1841.0,13183476.0,
2013.0,1552.0,1944.0,1836.0,13183480.0,
2015.0,1552.0,1937.0,1832.0,13183483.0,
2014.0,1552.0,1931.0,1831.0,13183487.0,
2012.0,1551.0,1924.0,1826.0,13183491.0,
2013.0,1553.0,1918.0,1821.0,13183494.0,
2014.0,1550.0,1910.0,1817.0,13183498.0,
2014.0,1552.0,1904.0,1814.0,13183502.0,
2013.0,1551.0,1896.0,1808.0,13183505.0,
2019.0,1552.0,1892.0,1810.0,13183509.0,
2013.0,1552.0,1889.0,1804.0,13183513.0,
2013.0,1552.0,1882.0,1801.0,13183516.0,
2014.0,1552.0,1878.0,1795.0,13183520.0,
2014.0,1551.0,1873.0,1801.0,13183523.0,
2007.0,1551.0,1868.0,1800.0,13183527.0,
2015.0,1551.0,1865.0,1794.0,13183531.0,
2014.0,1557.0,1860.0,1796.0,13183534.0,
2013.0,1551.0,1857.0,1796.0,13183538.0,
2014.0,1551.0,1854.0,1796.0,13183542.0,
2013.0,1551.0,1852.0,1793.0,13183545.0,
2014.0,1551.0,1848.0,1798.0,13183549.0,
2013.0,1550.0,1847.0,1794.0,13183553.0,
2014.0,1551.0,1843.0,1798.0,13183556.0,
2014.0,1549.0,1841.0,1798.0,13183560.0,
2013.0,1551.0,1840.0,1801.0,13183563.0,
2013.0,1550.0,1841.0,1802.0,13183567.0,
2014.0,1550.0,1840.0,1802.0,13183571.0,
2014.0,1550.0,1839.0,1802.0,13183574.0,
2014.0,1551.0,1836.0,1806.0,13183578.0,
2012.0,1551.0,1838.0,1806.0,13183582.0,
2014.0,1550.0,1838.0,1808.0,13183585.0,
2013.0,1551.0,1837.0,1808.0,13183589.0,
2015.0,1551.0,1837.0,1809.0,13183593.0,
2014.0,1550.0,1837.0,1809.0,13183596.0,
2013.0,1550.0,1834.0,1808.0,13183600.0,
2014.0,1551.0,1835.0,1805.0,13183603.0,
2012.0,1548.0,1836.0,1807.0,13183607.0,
2013.0,1549.0,1834.0,1801.0,13183611.0,
2013.0,1549.0,1832.0,1804.0,13183614.0,
2014.0,1549.0,1830.0,1802.0,13183618.0,
2013.0,1550.0,1829.0,1796.0,13183622.0,
2013.0,1551.0,1827.0,1797.0,13183625.0,
2014.0,1551.0,1828.0,1797.0,13183629.0,
2013.0,1550.0,1825.0,1800.0,13183633.0,
2014.0,1549.0,1826.0,1796.0,13183636.0,
2014.0,1550.0,1826.0,1799.0,13183640.0,
2013.0,1543.0,1826.0,1792.0,13183643.0,
2014.0,1552.0,1827.0,1790.0,13183647.0,
2014.0,1550.0,1831.0,1790.0,13183651.0,
2013.0,1549.0,1832.0,1789.0,13183654.0,
2013.0,1548.0,1835.0,1790.0,13183658.0,
2013.0,1549.0,1835.0,1789.0,13183662.0,
2014.0,1550.0,1838.0,1787.0,13183665.0,
2013.0,1548.0,1835.0,1788.0,13183669.0,
2013.0,1550.0,1836.0,1796.0,13183672.0,
2014.0,1544.0,1835.0,1791.0,13183676.0,
2013.0,1549.0,1834.0,1792.0,13183680.0,
2015.0,1548.0,1834.0,1790.0,13183683.0,
2013.0,1550.0,1836.0,1792.0,13183687.0,
2015.0,1550.0,1835.0,1798.0,13183691.0,
2014.0,1550.0,1837.0,1794.0,13183694.0,
2014.0,1558.0,1836.0,1796.0,13183698.0,
2014.0,1551.0,1839.0,1792.0,13183702.0,
2014.0,1549.0,1835.0,1794.0,13183705.0,
2014.0,1548.0,1835.0,1794.0,13183709.0,
2014.0,1550.0,1836.0,1793.0,13183712.0,
2015.0,1550.0,1834.0,1794.0,13183716.0,
2014.0,1550.0,1834.0,1791.0,13183720.0,
2014.0,1550.0,1834.0,1792.0,13183723.0,
2015.0,1549.0,1835.0,1791.0,13183727.0,
2014.0,1550.0,1833.0,1790.0,13183731.0,
2015.0,1550.0,1834.0,1788.0,13183734.0,
2010.0,1550.0,1836.0,1790.0,13183738.0,
2014.0,1550.0,1836.0,1783.0,13183742.0,
2014.0,1549.0,1836.0,1784.0,13183745.0,
2015.0,1549.0,1834.0,1780.0,13183749.0,
2014.0,1551.0,1832.0,1775.0,13183752.0,
2020.0,1550.0,1832.0,1771.0,13183756.0,
2017.0,1550.0,1827.0,1772.0,13183760.0,
2014.0,1550.0,1827.0,1766.0,13183763.0,
2017.0,1551.0,1825.0,1767.0,13183767.0,
2014.0,1550.0,1820.0,1764.0,13183771.0,
2014.0,1551.0,1819.0,1761.0,13183774.0,
2014.0,1551.0,1818.0,1762.0,13183778.0,
2014.0,1550.0,1814.0,1760.0,13183782.0,
2014.0,1553.0,1814.0,1761.0,13183785.0,
2014.0,1550.0,1812.0,1760.0,13183789.0,
2013.0,1550.0,1812.0,1756.0,13183792.0,
2014.0,1551.0,1814.0,1753.0,13183796.0,
2014.0,1550.0,1814.0,1749.0,13183800.0,
2015.0,1551.0,1811.0,1747.0,13183803.0,
2014.0,1552.0,1814.0,1745.0,13183807.0,
2015.0,1551.0,1811.0,1745.0,13183811.0,
2014.0,1550.0,1811.0,1739.0,13183814.0,
2014.0,1551.0,1810.0,1741.0,13183818.0,
2013.0,1552.0,1808.0,1742.0,13183822.0,
2014.0,1550.0,1807.0,1742.0,13183825.0,
2010.0,1550.0,1807.0,1743.0,13183829.0,
2014.0,1553.0,1807.0,1740.0,13183832.0,
2015.0,1551.0,1805.0,1740.0,13183836.0,
2014.0,1551.0,1806.0,1738.0,13183840.0,
2014.0,1551.0,1805.0,1741.0,13183843.0,
2013.0,1550.0,1807.0,1743.0,13183847.0,
2013.0,1554.0,1810.0,1746.0,13183851.0,
2014.0,1550.0,1810.0,1745.0,13183854.0,
2015.0,1552.0,1807.0,1750.0,13183858.0,
2014.0,1551.0,1810.0,1749.0,13183862.0,
2012.0,1551.0,1809.0,1754.0,13183865.0,
2014.0,1552.0,1809.0,1755.0,13183869.0,
2013.0,1551.0,1807.0,1760.0,13183872.0,
2013.0,1552.0,1812.0,1760.0,13183876.0,
2014.0,1553.0,1814.0,1761.0,13183880.0,
2014.0,1552.0,1817.0,1760.0,13183883.0,
2014.0,1552.0,1814.0,1767.0,13183887.0,
2014.0,1552.0,1818.0,1768.0,13183891.0,
2014.0,1553.0,1819.0,1769.0,13183894.0,
2014.0,1551.0,1820.0,1769.0,13183898.0,
2013.0,1552.0,1818.0,1769.0,13183901.0,
2014.0,1552.0,1819.0,1771.0,13183905.0,
2015.0,1552.0,1817.0,1773.0,13183909.0,
2016.0,1553.0,1818.0,1772.0,13183912.0,
2014.0,1553.0,1818.0,1776.0,13183916.0,
2013.0,1553.0,1815.0,1777.0,13183920.0,
2014.0,1553.0,1818.0,1779.0,13183923.0,
2014.0,1553.0,1819.0,1776.0,13183927.0,
2014.0,1552.0,1819.0,1783.0,13183931.0,
2014.0,1552.0,1818.0,1773.0,13183934.0,
2014.0,1553.0,1818.0,1776.0,13183938.0,
2014.0,1552.0,1815.0,1771.0,13183941.0,
2014.0,1553.0,1814.0,1775.0,13183945.0,
2016.0,1552.0,1811.0,1777.0,13183949.0,
2014.0,1551.0,1809.0,1778.0,13183952.0,
2015.0,1554.0,1808.0,1787.0,13183956.0,
2014.0,1555.0,1808.0,1792.0,13183960.0,
2014.0,1552.0,1807.0,1798.0,13183963.0,
2015.0,1553.0,1806.0,1806.0,13183967.0,
2015.0,1553.0,1809.0,1818.0,13183971.0,
2015.0,1554.0,1811.0,1829.0,13183974.0,
2012.0,1553.0,1812.0,1843.0,13183978.0,
2015.0,1552.0,1816.0,1859.0,13183981.0,
2014.0,1551.0,1822.0,1872.0,13183985.0,
2014.0,1553.0,1832.0,1890.0,13183989.0,
2013.0,1554.0,1844.0,1909.0,13183992.0,
2014.0,1553.0,1859.0,1929.0,13183996.0,
2014.0,1555.0,1874.0,1949.0,13184000.0,
2014.0,1554.0,1893.0,1969.0,13184003.0,
2014.0,1554.0,1911.0,1994.0,13184007.0,
2014.0,1557.0,1939.0,2014.0,13184011.0,
2015.0,1555.0,1970.0,2041.0,13184014.0,
2014.0,1551.0,1998.0,2065.0,13184018.0,
2015.0,1555.0,2035.0,2091.0,13184021.0,
2013.0,1554.0,2067.0,2118.0,13184025.0,
2015.0,1555.0,2106.0,2142.0,13184029.0,
2015.0,1555.0,2145.0,2166.0,13184032.0,
2014.0,1555.0,2191.0,2187.0,13184036.0,
2013.0,1554.0,2238.0,2210.0,13184040.0,
2015.0,1556.0,2287.0,2234.0,13184043.0,
2013.0,1556.0,2337.0,2259.0,13184047.0,
2015.0,1555.0,2387.0,2275.0,13184051.0,
2015.0,1551.0,2434.0,2294.0,13184054.0,
2015.0,1555.0,2485.0,2311.0,13184058.0,
2016.0,1556.0,2534.0,2324.0,13184061.0,
2015.0,1554.0,2583.0,2340.0,13184065.0,
2016.0,1554.0,2626.0,2348.0,13184069.0,
2014.0,1555.0,2666.0,2359.0,13184072.0,
2014.0,1556.0,2708.0,2367.0,13184076.0,
2015.0,1557.0,2747.0,2372.0,13184080.0,
2015.0,1555.0,2779.0,2372.0,13184083.0,
2015.0,1555.0,2808.0,2376.0,13184087.0,
2015.0,1555.0,2835.0,2377.0,13184091.0,
2015.0,1555.0,2859.0,2379.0,13184094.0,
2015.0,1556.0,2876.0,2379.0,13184098.0,
2014.0,1556.0,2891.0,2378.0,13184101.0,
2015.0,1557.0,2905.0,2378.0,13184105.0,
2018.0,1556.0,2911.0,2375.0,13184109.0,
2015.0,1556.0,2915.0,2370.0,13184112.0,
2016.0,1557.0,2915.0,2368.0,13184116.0,
2015.0,1556.0,2910.0,2364.0,13184120.0,
2015.0,1557.0,2901.0,2363.0,13184123.0,
2015.0,1556.0,2890.0,2364.0,13184127.0,
2015.0,1556.0,2872.0,2363.0,13184130.0,
2015.0,1559.0,2858.0,2363.0,13184134.0,
2015.0,1556.0,2838.0,2362.0,13184138.0,
2015.0,1558.0,2816.0,2355.0,13184141.0,
2016.0,1557.0,2793.0,2348.0,13184145.0,
2015.0,1557.0,2767.0,2348.0,13184149.0,
2015.0,1557.0,2744.0,2338.0,13184152.0,
2014.0,1558.0,2717.0,2335.0,13184156.0,
2016.0,1558.0,2689.0,2331.0,13184160.0,
2015.0,1559.0,2662.0,2325.0,13184163.0,
2015.0,1558.0,2634.0,2321.0,13184167.0,
2015.0,1557.0,2605.0,2314.0,13184170.0,
2015.0,1558.0,2578.0,2308.0,13184174.0,
2015.0,1558.0,2552.0,2301.0,13184178.0,
2015.0,1560.0,2526.0,2291.0,13184181.0,
2016.0,1558.0,2502.0,2281.0,13184185.0,
2015.0,1557.0,2477.0,2276.0,13184189.0,
2016.0,1558.0,2454.0,2265.0,13184192.0,
2016.0,1557.0,2435.0,2261.0,13184196.0,
2016.0,1559.0,2412.0,2251.0,13184200.0,
2014.0,1561.0,2394.0,2240.0,13184203.0,
2016.0,1558.0,2377.0,2226.0,13184207.0,
2015.0,1560.0,2362.0,2223.0,13184210.0,
2015.0,1561.0,2342.0,2211.0,13184214.0,
2016.0,1558.0,2328.0,2202.0,13184218.0,
2015.0,1559.0,2311.0,2188.0,13184221.0,
2015.0,1561.0,2296.0,2176.0,13184225.0,
2014.0,1561.0,2278.0,2162.0,13184229.0,
2015.0,1559.0,2265.0,2147.0,13184232.0,
2013.0,1559.0,2250.0,2131.0,13184236.0,
2015.0,1561.0,2235.0,2120.0,13184240.0,
2017.0,1561.0,2221.0,2110.0,13184243.0,
2016.0,1561.0,2205.0,2101.0,13184247.0,
2015.0,1556.0,2187.0,2089.0,13184250.0,
2015.0,1562.0,2173.0,2080.0,13184254.0,
2009.0,1561.0,2157.0,2072.0,13184258.0,
2015.0,1564.0,2142.0,2059.0,13184261.0,
2015.0,1561.0,2128.0,2052.0,13184265.0,
2015.0,1562.0,2112.0,2042.0,13184269.0,
2015.0,1561.0,2097.0,2032.0,13184272.0,
2015.0,1563.0,2082.0,2030.0,13184276.0,
2015.0,1563.0,2070.0,2027.0,13184280.0,
2015.0,1562.0,2057.0,2019.0,13184283.0,
2015.0,1562.0,2044.0,2017.0,13184287.0,
2015.0,1562.0,2034.0,2018.0,13184290.0,
2015.0,1563.0,2017.0,2018.0,13184294.0,
2015.0,1561.0,2016.0,2017.0,13184298.0,
2015.0,1563.0,2013.0,2016.0,13184301.0,
2016.0,1563.0,1999.0,2013.0,13184305.0,
2016.0,1564.0,1992.0,2015.0,13184309.0,
2015.0,1563.0,1987.0,2018.0,13184312.0,
2014.0,1563.0,1982.0,2021.0,13184316.0,
2015.0,1562.0,1977.0,2020.0,13184320.0,
2015.0,1564.0,1971.0,2020.0,13184323.0,
2015.0,1565.0,1968.0,2022.0,13184327.0,
2016.0,1565.0,1966.0,2019.0,13184330.0,
2016.0,1564.0,1961.0,2021.0,13184334.0,
2013.0,1564.0,1962.0,2018.0,13184338.0,
2015.0,1564.0,1960.0,2017.0,13184341.0,
2015.0,1565.0,1964.0,2018.0,13184345.0,
2014.0,1564.0,1967.0,2015.0,13184349.0,
2016.0,1564.0,1966.0,2014.0,13184352.0,
2015.0,1565.0,1974.0,2016.0,13184356.0,
2016.0,1560.0,1976.0,2008.0,13184359.0,
2014.0,1565.0,1977.0,2010.0,13184363.0,
2014.0,1564.0,1980.0,2008.0,13184367.0,
2015.0,1564.0,1987.0,2003.0,13184370.0,
2015.0,1564.0,1989.0,2000.0,13184374.0,
2015.0,1562.0,1995.0,1998.0,13184378.0,
2013.0,1565.0,1995.0,1989.0,13184381.0,
2015.0,1565.0,2002.0,1989.0,13184385.0,
2016.0,1567.0,2005.0,1983.0,13184389.0,
2014.0,1565.0,2006.0,1976.0,13184392.0,
2016.0,1565.0,2010.0,1970.0,13184396.0,
2015.0,1563.0,2008.0,1955.0,13184399.0,
2016.0,1564.0,2011.0,1950.0,13184403.0,
2016.0,1565.0,2013.0,1947.0,13184407.0,
2016.0,1564.0,2010.0,1937.0,13184410.0,
2015.0,1566.0,2011.0,1933.0,13184414.0,
2015.0,1566.0,2011.0,1929.0,13184418.0,
2014.0,1566.0,2008.0,1925.0,13184421.0,
2015.0,1566.0,2006.0,1922.0,13184425.0,
2014.0,1567.0,2004.0,1922.0,13184429.0,
2014.0,1567.0,2000.0,1920.0,13184432.0,
2015.0,1566.0,1996.0,1921.0,13184436.0,
2015.0,1564.0,1992.0,1920.0,13184439.0,
2015.0,1566.0,1989.0,1920.0,13184443.0,
2015.0,1568.0,1984.0,1921.0,13184447.0,
2016.0,1567.0,1977.0,1918.0,13184450.0,
2016.0,1568.0,1972.0,1917.0,13184454.0,
2015.0,1567.0,1966.0,1911.0,13184458.0,
2015.0,1568.0,1960.0,1910.0,13184461.0,
2016.0,1567.0,1953.0,1907.0,13184465.0,
2016.0,1568.0,1945.0,1908.0,13184469.0,
2015.0,1568.0,1939.0,1903.0,13184472.0,
2015.0,1567.0,1930.0,1899.0,13184476.0,
2014.0,1568.0,1925.0,1892.0,13184479.0,
2015.0,1569.0,1920.0,1892.0,13184483.0,
2015.0,1570.0,1914.0,1892.0,13184487.0,
2015.0,1569.0,1904.0,1885.0,13184490.0,
2015.0,1567.0,1903.0,1880.0,13184494.0,
2014.0,1567.0,1895.0,1880.0,13184498.0,
2014.0,1568.0,1887.0,1872.0,13184501.0,
2015.0,1568.0,1881.0,1868.0,13184505.0,
2015.0,1568.0,1872.0,1866.0,13184509.0,
2015.0,1568.0,1866.0,1860.0,13184512.0,
2014.0,1568.0,1861.0,1859.0,13184516.0,
2015.0,1572.0,1855.0,1852.0,13184519.0,
2016.0,1568.0,1852.0,1849.0,13184523.0,
2015.0,1569.0,1848.0,1856.0,13184527.0,
2015.0,1571.0,1845.0,1844.0,13184530.0,
2015.0,1569.0,1840.0,1841.0,13184534.0,
2014.0,1568.0,1837.0,1837.0,13184538.0,
2015.0,1567.0,1834.0,1833.0,13184541.0,
2016.0,1568.0,1832.0,1830.0,13184545.0,
2009.0,1567.0,1829.0,1830.0,13184548.0,
2014.0,1569.0,1827.0,1826.0,13184552.0,
2015.0,1568.0,1826.0,1827.0,13184556.0,
2016.0,1571.0,1827.0,1825.0,13184559.0,
2016.0,1567.0,1825.0,1825.0,13184563.0,
2015.0,1569.0,1827.0,1826.0,13184567.0,
2015.0,1571.0,1827.0,1823.0,13184570.0,
2014.0,1568.0,1826.0,1824.0,13184574.0,
2015.0,1568.0,1827.0,1823.0,13184578.0,
2015.0,1567.0,1828.0,1822.0,13184581.0,
2015.0,1567.0,1833.0,1823.0,13184585.0,
2015.0,1567.0,1835.0,1824.0,13184588.0,
2014.0,1567.0,1836.0,1827.0,13184592.0,
2015.0,1568.0,1836.0,1831.0,13184596.0,
2014.0,1568.0,1838.0,1834.0,13184599.0,
2015.0,1569.0,1838.0,1833.0,13184603.0,
2015.0,1567.0,1837.0,1839.0,13184607.0,
2015.0,1568.0,1840.0,1840.0,13184610.0,
2015.0,1566.0,1843.0,1844.0,13184614.0,
2015.0,1567.0,1843.0,1841.0,13184618.0,
2015.0,1566.0,1846.0,1844.0,13184621.0,
2016.0,1566.0,1844.0,1846.0,13184625.0,
2015.0,1566.0,1851.0,1844.0,13184628.0,
2015.0,1566.0,1849.0,1841.0,13184632.0,
2016.0,1566.0,1847.0,1843.0,13184636.0,
2015.0,1566.0,1850.0,1840.0,13184639.0,
2014.0,1567.0,1851.0,1838.0,13184643.0,
2014.0,1566.0,1855.0,1838.0,13184647.0,
2015.0,1565.0,1854.0,1836.0,13184650.0,
2015.0,1563.0,1854.0,1831.0,13184654.0,
2014.0,1566.0,1857.0,1833.0,13184658.0,
2015.0,1565.0,1860.0,1830.0,13184661.0,
2015.0,1565.0,1862.0,1830.0,13184665.0,
2016.0,1565.0,1865.0,1827.0,13184668.0,
2015.0,1564.0,1862.0,1828.0,13184672.0,
2015.0,1565.0,1865.0,1827.0,13184676.0,
2015.0,1564.0,1865.0,1825.0,13184679.0,
2015.0,1565.0,1866.0,1824.0,13184683.0,
2015.0,1566.0,1865.0,1828.0,13184687.0,
2015.0,1565.0,1866.0,1827.0,13184690.0,
2016.0,1564.0,1865.0,1830.0,13184694.0,
2008.0,1563.0,1862.0,1829.0,13184698.0,
2015.0,1564.0,1864.0,1827.0,13184701.0,
2015.0,1564.0,1864.0,1827.0,13184705.0,
2016.0,1564.0,1864.0,1824.0,13184708.0,
2015.0,1563.0,1865.0,1824.0,13184712.0,
2015.0,1564.0,1862.0,1827.0,13184716.0,
2015.0,1563.0,1861.0,1826.0,13184719.0,
2015.0,1564.0,1861.0,1827.0,13184723.0,
2014.0,1564.0,1862.0,1829.0,13184727.0,
2015.0,1562.0,1863.0,1827.0,13184730.0,
2015.0,1561.0,1862.0,1830.0,13184734.0,
2013.0,1564.0,1863.0,1830.0,13184737.0,
2015.0,1562.0,1863.0,1830.0,13184741.0,
2016.0,1563.0,1863.0,1832.0,13184745.0,
2015.0,1563.0,1862.0,1832.0,13184748.0,
2015.0,1564.0,1859.0,1830.0,13184752.0,
2015.0,1559.0,1861.0,1831.0,13184756.0,
2015.0,1562.0,1861.0,1828.0,13184759.0,
2015.0,1562.0,1858.0,1827.0,13184763.0,
2014.0,1562.0,1855.0,1826.0,13184767.0,
2015.0,1562.0,1856.0,1827.0,13184770.0,
2015.0,1560.0,1857.0,1821.0,13184774.0,
2015.0,1561.0,1854.0,1827.0,13184777.0,
2014.0,1562.0,1857.0,1822.0,13184781.0,
2015.0,1562.0,1856.0,1818.0,13184785.0,
2015.0,1561.0,1853.0,1810.0,13184788.0,
2015.0,1560.0,1853.0,1813.0,13184792.0,
2015.0,1561.0,1853.0,1805.0,13184796.0,
2015.0,1562.0,1852.0,1802.0,13184799.0,
2015.0,1560.0,1850.0,1797.0,13184803.0,
2015.0,1561.0,1849.0,1794.0,13184807.0,
2014.0,1562.0,1848.0,1795.0,13184810.0,
2015.0,1564.0,1847.0,1792.0,13184814.0,
2015.0,1560.0,1844.0,1794.0,13184817.0,
2014.0,1561.0,1841.0,1790.0,13184821.0,
2015.0,1562.0,1843.0,1789.0,13184825.0,
2017.0,1560.0,1840.0,1787.0,13184828.0,
2015.0,1560.0,1836.0,1780.0,13184832.0,
2015.0,1560.0,1833.0,1781.0,13184836.0,
2015.0,1560.0,1832.0,1772.0,13184839.0,
2015.0,1561.0,1831.0,1767.0,13184843.0,
2014.0,1559.0,1832.0,1769.0,13184847.0,
2015.0,1560.0,1832.0,1776.0,13184850.0,
2015.0,1561.0,1830.0,1764.0,13184854.0,
2016.0,1560.0,1830.0,1766.0,13184857.0,
2015.0,1559.0,1830.0,1760.0,13184861.0,
2017.0,1559.0,1832.0,1762.0,13184865.0,
2015.0,1560.0,1830.0,1757.0,13184868.0,
2015.0,1559.0,1827.0,1757.0,13184872.0,
2015.0,1560.0,1829.0,1756.0,13184876.0,
2021.0,1559.0,1829.0,1752.0,13184879.0,
2015.0,1559.0,1828.0,1746.0,13184883.0,
2015.0,1559.0,1826.0,1748.0,13184887.0,
2015.0,1558.0,1828.0,1740.0,13184890.0,
2014.0,1560.0,1830.0,1742.0,13184894.0,
2014.0,1566.0,1830.0,1741.0,13184897.0,
2015.0,1558.0,1833.0,1742.0,13184901.0,
2015.0,1561.0,1832.0,1741.0,13184905.0,
2015.0,1560.0,1831.0,1743.0,13184908.0,
2015.0,1559.0,1834.0,1741.0,13184912.0,
2015.0,1560.0,1834.0,1748.0,13184916.0,
2016.0,1560.0,1835.0,1749.0,13184919.0,
2015.0,1560.0,1836.0,1754.0,13184923.0,
2014.0,1560.0,1837.0,1761.0,13184926.0,
2015.0,1559.0,1838.0,1770.0,13184930.0,
2016.0,1559.0,1838.0,1781.0,13184934.0,
2015.0,1558.0,1840.0,1794.0,13184937.0,
2014.0,1557.0,1841.0,1798.0,13184941.0,
2015.0,1559.0,1842.0,1813.0,13184945.0,
2015.0,1559.0,1845.0,1826.0,13184948.0,
2014.0,1560.0,1845.0,1841.0,13184952.0,
2014.0,1558.0,1849.0,1853.0,13184956.0,
2015.0,1560.0,1858.0,1869.0,13184959.0,
2016.0,1559.0,1860.0,1883.0,13184963.0,
2015.0,1559.0,1869.0,1902.0,13184966.0,
2015.0,1559.0,1878.0,1921.0,13184970.0,
2016.0,1559.0,1891.0,1941.0,13184974.0,
2016.0,1559.0,1906.0,1964.0,13184977.0,
2016.0,1561.0,1922.0,1986.0,13184981.0,
2015.0,1560.0,1943.0,2014.0,13184985.0,
2015.0,1560.0,1964.0,2036.0,13184988.0,
2015.0,1559.0,1992.0,2057.0,13184992.0,
2016.0,1560.0,2020.0,2079.0,13184996.0,
2015.0,1559.0,2051.0,2102.0,13184999.0,
2016.0,1558.0,2087.0,2123.0,13185003.0,
2016.0,1560.0,2127.0,2145.0,13185006.0,
2015.0,1558.0,2164.0,2164.0,13185010.0,
2015.0,1558.0,2207.0,2183.0,13185014.0,
2014.0,1559.0,2250.0,2203.0,13185017.0,
2015.0,1559.0,2291.0,2220.0,13185021.0,
2016.0,1560.0,2336.0,2235.0,13185025.0,
2015.0,1560.0,2379.0,2249.0,13185028.0,
2016.0,1559.0,2424.0,2253.0,13185032.0,
2016.0,1558.0,2468.0,2275.0,13185036.0,
2015.0,1561.0,2513.0,2289.0,13185039.0,
2016.0,1558.0,2553.0,2299.0,13185043.0,
2016.0,1558.0,2593.0,2307.0,13185046.0,
2016.0,1556.0,2628.0,2319.0,13185050.0,
2012.0,1559.0,2667.0,2324.0,13185054.0,
2015.0,1560.0,2697.0,2328.0,13185057.0,
2015.0,1558.0,2727.0,2330.0,13185061.0,
2016.0,1559.0,2755.0,2333.0,13185065.0,
2016.0,1559.0,2775.0,2340.0,13185068.0,
2015.0,1558.0,2795.0,2336.0,13185072.0,
2016.0,1559.0,2813.0,2338.0,13185076.0,
2015.0,1559.0,2818.0,2332.0,13185079.0,
2016.0,1558.0,2826.0,2332.0,13185083.0,
2019.0,1560.0,2829.0,2327.0,13185086.0,
2010.0,1560.0,2830.0,2322.0,13185090.0,
2016.0,1561.0,2825.0,2315.0,13185094.0,
2016.0,1559.0,2819.0,2306.0,13185097.0,
2016.0,1559.0,2808.0,2300.0,13185101.0,
2016.0,1558.0,2793.0,2292.0,13185105.0,
2015.0,1558.0,2775.0,2285.0,13185108.0,
2016.0,1559.0,2756.0,2279.0,13185112.0,
2016.0,1560.0,2734.0,2263.0,13185115.0,
2016.0,1559.0,2711.0,2259.0,13185119.0,
2016.0,1558.0,2685.0,2254.0,13185123.0,
2016.0,1558.0,2660.0,2250.0,13185126.0,
2016.0,1558.0,2636.0,2244.0,13185130.0,
2016.0,1556.0,2610.0,2232.0,13185134.0,
2016.0,1557.0,2582.0,2232.0,13185137.0,
2016.0,1558.0,2556.0,2225.0,13185141.0,
2017.0,1559.0,2527.0,2219.0,13185145.0,
2015.0,1559.0,2502.0,2211.0,13185148.0,
2016.0,1557.0,2470.0,2201.0,13185152.0,
2016.0,1557.0,2448.0,2197.0,13185155.0,
2016.0,1558.0,2416.0,2186.0,13185159.0,
2016.0,1556.0,2391.0,2175.0,13185163.0,
2017.0,1558.0,2366.0,2165.0,13185166.0,
2016.0,1557.0,2344.0,2152.0,13185170.0,
2016.0,1557.0,2321.0,2142.0,13185174.0,
2016.0,1557.0,2301.0,2136.0,13185177.0,
2017.0,1557.0,2278.0,2123.0,13185181.0,
2016.0,1557.0,2260.0,2114.0,13185185.0,
2015.0,1557.0,2238.0,2107.0,13185188.0,
2016.0,1556.0,2225.0,2100.0,13185192.0,
2016.0,1562.0,2206.0,2096.0,13185195.0,
2017.0,1557.0,2193.0,2088.0,13185199.0,
2017.0,1558.0,2175.0,2083.0,13185203.0,
2016.0,1558.0,2162.0,2073.0,13185206.0,
2016.0,1557.0,2146.0,2064.0,13185210.0,
2016.0,1555.0,2132.0,2060.0,13185214.0,
2015.0,1556.0,2116.0,2050.0,13185217.0,
2016.0,1557.0,2102.0,2047.0,13185221.0,
2016.0,1551.0,2088.0,2042.0,13185225.0,
2016.0,1558.0,2074.0,2038.0,13185228.0,
2017.0,1559.0,2061.0,2034.0,13185232.0,
2016.0,1556.0,2051.0,2029.0,13185235.0,
2016.0,1558.0,2040.0,2023.0,13185239.0,
2016.0,1558.0,2032.0,2021.0,13185243.0,
2014.0,1557.0,2021.0,2014.0,13185246.0,
2016.0,1555.0,2011.0,2009.0,13185250.0,
2015.0,1556.0,2003.0,2002.0,13185254.0,
2016.0,1560.0,1994.0,2002.0,13185257.0,
2015.0,1558.0,1984.0,1998.0,13185261.0,
2017.0,1557.0,1978.0,1996.0,13185265.0,
2015.0,1558.0,1972.0,1998.0,13185268.0,
2016.0,1554.0,1965.0,1996.0,13185272.0,
2016.0,1557.0,1961.0,1993.0,13185275.0,
2016.0,1559.0,1958.0,1998.0,13185279.0,
2016.0,1558.0,1953.0,1991.0,13185283.0,
2016.0,1557.0,1952.0,1991.0,13185286.0,
2016.0,1557.0,1948.0,1990.0,13185290.0,
2016.0,1556.0,1948.0,1991.0,13185294.0,
2016.0,1557.0,1947.0,1983.0,13185297.0,
2015.0,1556.0,1945.0,1988.0,13185301.0,
2017.0,1557.0,1946.0,1992.0,13185305.0,
2016.0,1557.0,1947.0,1990.0,13185308.0,
2016.0,1557.0,1947.0,1994.0,13185312.0,
2016.0,1555.0,1948.0,1991.0,13185315.0,
2016.0,1558.0,1949.0,1988.0,13185319.0,
2016.0,1555.0,1954.0,1991.0,13185323.0,
2017.0,1557.0,1956.0,1987.0,13185326.0,
2016.0,1558.0,1964.0,1984.0,13185330.0,
2016.0,1556.0,1967.0,1988.0,13185334.0,
2010.0,1555.0,1971.0,1988.0,13185337.0,
2016.0,1558.0,1976.0,1986.0,13185341.0,
2016.0,1555.0,1982.0,1985.0,13185344.0,
2016.0,1556.0,1988.0,1986.0,13185348.0,
2016.0,1556.0,1991.0,1985.0,13185352.0,
2016.0,1557.0,1996.0,1984.0,13185355.0,
2015.0,1553.0,2002.0,1982.0,13185359.0,
2017.0,1555.0,2007.0,1977.0,13185363.0,
2018.0,1557.0,2010.0,1975.0,13185366.0,
2016.0,1556.0,2012.0,1969.0,13185370.0,
2015.0,1555.0,2011.0,1963.0,13185374.0,
2016.0,1556.0,2014.0,1958.0,13185377.0,
2016.0,1557.0,2014.0,1953.0,13185381.0,
2010.0,1554.0,2011.0,1948.0,13185384.0,
2016.0,1557.0,2010.0,1941.0,13185388.0,
2016.0,1558.0,2010.0,1935.0,13185392.0,
2016.0,1559.0,2006.0,1931.0,13185395.0,
2016.0,1557.0,2001.0,1929.0,13185399.0,
2016.0,1556.0,1998.0,1921.0,13185403.0,
2016.0,1557.0,1994.0,1916.0,13185406.0,
2016.0,1557.0,1989.0,1906.0,13185410.0,
2017.0,1557.0,1979.0,1905.0,13185414.0,
2015.0,1556.0,1974.0,1897.0,13185417.0,
2017.0,1557.0,1966.0,1887.0,13185421.0,
2017.0,1558.0,1962.0,1879.0,13185424.0,
2016.0,1556.0,1955.0,1870.0,13185428.0,
2017.0,1558.0,1948.0,1860.0,13185432.0,
2016.0,1556.0,1941.0,1855.0,13185435.0,
2016.0,1557.0,1935.0,1845.0,13185439.0,
2014.0,1556.0,1929.0,1839.0,13185443.0,
2017.0,1557.0,1923.0,1834.0,13185446.0,
2019.0,1556.0,1913.0,1826.0,13185450.0,
2016.0,1556.0,1908.0,1817.0,13185454.0,
2016.0,1556.0,1901.0,1817.0,13185457.0,
2014.0,1556.0,1896.0,1810.0,13185461.0,
2016.0,1556.0,1889.0,1810.0,13185464.0,
2016.0,1558.0,1886.0,1806.0,13185468.0,
2016.0,1552.0,1880.0,1804.0,13185472.0,
2021.0,1557.0,1874.0,1803.0,13185475.0,
2016.0,1556.0,1870.0,1803.0,13185479.0,
2016.0,1558.0,1866.0,1804.0,13185483.0,
2016.0,1556.0,1860.0,1803.0,13185486.0,
2016.0,1556.0,1859.0,1801.0,13185490.0,
2016.0,1560.0,1852.0,1798.0,13185494.0,
2016.0,1556.0,1852.0,1797.0,13185497.0,
2016.0,1555.0,1851.0,1797.0,13185501.0,
2015.0,1556.0,1848.0,1804.0,13185504.0,
2015.0,1557.0,1847.0,1800.0,13185508.0,
2016.0,1556.0,1845.0,1801.0,13185512.0,
2016.0,1556.0,1841.0,1805.0,13185515.0,
2014.0,1555.0,1844.0,1804.0,13185519.0,
2016.0,1556.0,1842.0,1810.0,13185523.0,
2021.0,1557.0,1844.0,1811.0,13185526.0,
2016.0,1555.0,1844.0,1814.0,13185530.0,
2015.0,1557.0,1844.0,1815.0,13185533.0,
2015.0,1551.0,1844.0,1815.0,13185537.0,
2016.0,1558.0,1847.0,1815.0,13185541.0,
2015.0,1556.0,1847.0,1816.0,13185544.0,
2016.0,1555.0,1847.0,1817.0,13185548.0,
2016.0,1554.0,1847.0,1817.0,13185552.0,
2016.0,1557.0,1848.0,1822.0,13185555.0,
2016.0,1556.0,1845.0,1816.0,13185559.0,
2017.0,1556.0,1850.0,1818.0,13185563.0,
2016.0,1559.0,1846.0,1818.0,13185566.0,
2015.0,1555.0,1847.0,1816.0,13185570.0,
2016.0,1556.0,1847.0,1816.0,13185573.0,
2016.0,1554.0,1844.0,1814.0,13185577.0,
2015.0,1557.0,1845.0,1812.0,13185581.0,
2016.0,1556.0,1845.0,1814.0,13185584.0,
2016.0,1555.0,1844.0,1811.0,13185588.0,
2016.0,1555.0,1843.0,1810.0,13185592.0,
2016.0,1556.0,1845.0,1807.0,13185595.0,
2016.0,1549.0,1844.0,1806.0,13185599.0,
2015.0,1555.0,1843.0,1804.0,13185603.0,
2017.0,1556.0,1843.0,1801.0,13185606.0,
2016.0,1556.0,1846.0,1800.0,13185610.0,
2014.0,1555.0,1847.0,1797.0,13185613.0,
2015.0,1555.0,1849.0,1797.0,13185617.0,
2016.0,1555.0,1850.0,1791.0,13185621.0,
2016.0,1556.0,1853.0,1791.0,13185624.0,
2018.0,1556.0,1854.0,1788.0,13185628.0,
2016.0,1556.0,1854.0,1784.0,13185632.0,
2018.0,1557.0,1858.0,1783.0,13185635.0,
2014.0,1555.0,1859.0,1777.0,13185639.0,
2016.0,1555.0,1863.0,1778.0,13185643.0,
2017.0,1556.0,1863.0,1782.0,13185646.0,
2015.0,1556.0,1865.0,1778.0,13185650.0,
2017.0,1556.0,1864.0,1782.0,13185653.0,
2021.0,1553.0,1867.0,1785.0,13185657.0,
2016.0,1556.0,1870.0,1785.0,13185661.0,
2016.0,1555.0,1871.0,1792.0,13185664.0,
2016.0,1555.0,1873.0,1802.0,13185668.0,
2017.0,1555.0,1874.0,1798.0,13185672.0,
2016.0,1555.0,1877.0,1802.0,13185675.0,
2016.0,1558.0,1872.0,1807.0,13185679.0,
2016.0,1558.0,1872.0,1808.0,13185683.0,
2016.0,1554.0,1874.0,1813.0,13185686.0,
2015.0,1554.0,1877.0,1812.0,13185690.0,
2015.0,1555.0,1874.0,1811.0,13185693.0,
2017.0,1555.0,1875.0,1808.0,13185697.0,
2015.0,1555.0,1875.0,1809.0,13185701.0,
2016.0,1552.0,1872.0,1805.0,13185704.0,
2016.0,1555.0,1869.0,1804.0,13185708.0,
2016.0,1557.0,1866.0,1800.0,13185712.0,
2017.0,1556.0,1866.0,1802.0,13185715.0,
2015.0,1556.0,1865.0,1800.0,13185719.0,
2016.0,1554.0,1861.0,1799.0,13185722.0,
2016.0,1554.0,1860.0,1799.0,13185726.0,
2016.0,1555.0,1859.0,1795.0,13185730.0,
2016.0,1556.0,1856.0,1797.0,13185733.0,
2017.0,1555.0,1852.0,1795.0,13185737.0,
2015.0,1553.0,1852.0,1796.0,13185741.0,
2016.0,1555.0,1848.0,1798.0,13185744.0,
2014.0,1555.0,1849.0,1797.0,13185748.0,
2016.0,1556.0,1846.0,1798.0,13185752.0,
2016.0,1555.0,1847.0,1802.0,13185755.0,
2016.0,1555.0,1847.0,1803.0,13185759.0,
2016.0,1555.0,1846.0,1806.0,13185762.0,
2016.0,1554.0,1844.0,1809.0,13185766.0,
2016.0,1554.0,1843.0,1809.0,13185770.0,
2016.0,1555.0,1842.0,1811.0,13185773.0,
2016.0,1554.0,1843.0,1809.0,13185777.0,
2016.0,1556.0,1840.0,1807.0,13185781.0,
2016.0,1554.0,1841.0,1809.0,13185784.0,
2016.0,1549.0,1838.0,1807.0,13185788.0,
2016.0,1556.0,1840.0,1805.0,13185792.0,
2016.0,1554.0,1838.0,1804.0,13185795.0,
2017.0,1556.0,1838.0,1798.0,13185799.0,
2017.0,1555.0,1838.0,1799.0,13185802.0,
2016.0,1555.0,1836.0,1796.0,13185806.0,
2023.0,1555.0,1837.0,1790.0,13185810.0,
2016.0,1556.0,1839.0,1791.0,13185813.0,
2016.0,1557.0,1838.0,1792.0,13185817.0,
2016.0,1552.0,1839.0,1792.0,13185821.0,
2016.0,1554.0,1839.0,1794.0,13185824.0,
2017.0,1554.0,1840.0,1793.0,13185828.0,
2016.0,1555.0,1842.0,1795.0,13185832.0,
2016.0,1555.0,1842.0,1797.0,13185835.0,
2016.0,1554.0,1841.0,1795.0,13185839.0,
2016.0,1554.0,1845.0,1796.0,13185842.0,
2016.0,1555.0,1844.0,1794.0,13185846.0,
2017.0,1554.0,1846.0,1790.0,13185850.0,
2017.0,1555.0,1845.0,1789.0,13185853.0,
2016.0,1554.0,1845.0,1789.0,13185857.0,
2016.0,1554.0,1846.0,1787.0,13185861.0,
2016.0,1553.0,1845.0,1788.0,13185864.0,
2016.0,1554.0,1843.0,1794.0,13185868.0,
2015.0,1555.0,1842.0,1790.0,13185872.0,
2017.0,1554.0,1842.0,1792.0,13185875.0,
2010.0,1554.0,1845.0,1789.0,13185879.0,
2016.0,1553.0,1844.0,1790.0,13185882.0,
2015.0,1555.0,1844.0,1791.0,13185886.0,
2017.0,1554.0,1847.0,1788.0,13185890.0,
2015.0,1555.0,1849.0,1790.0,13185893.0,
2016.0,1556.0,1850.0,1787.0,13185897.0,
2010.0,1555.0,1853.0,1786.0,13185901.0,
2015.0,1554.0,1854.0,1789.0,13185904.0,
2016.0,1558.0,1854.0,1793.0,13185908.0,
2016.0,1556.0,1855.0,1796.0,13185911.0,
2016.0,1554.0,1858.0,1798.0,13185915.0,
2017.0,1555.0,1857.0,1804.0,13185919.0,
2017.0,1556.0,1859.0,1808.0,13185922.0,
2016.0,1555.0,1857.0,1819.0,13185926.0,
2018.0,1556.0,1862.0,1826.0,13185930.0,
2016.0,1556.0,1861.0,1837.0,13185933.0,
2017.0,1556.0,1861.0,1850.0,13185937.0,
2017.0,1556.0,1863.0,1867.0,13185941.0,
2017.0,1555.0,1869.0,1882.0,13185944.0,
2015.0,1557.0,1862.0,1903.0,13185948.0,
2016.0,1555.0,1877.0,1916.0,13185951.0,
2016.0,1553.0,1882.0,1937.0,13185955.0,
2016.0,1554.0,1892.0,1953.0,13185959.0,
2017.0,1555.0,1900.0,1971.0,13185962.0,
2019.0,1555.0,1913.0,1994.0,13185966.0,
2016.0,1554.0,1925.0,2014.0,13185970.0,
2017.0,1555.0,1944.0,2039.0,13185973.0,
2016.0,1556.0,1963.0,2063.0,13185977.0,
2017.0,1555.0,1990.0,2085.0,13185981.0,
2016.0,1555.0,2020.0,2110.0,13185984.0,
2016.0,1556.0,2049.0,2136.0,13185988.0,
2016.0,1555.0,2083.0,2160.0,13185991.0,
2017.0,1551.0,2119.0,2184.0,13185995.0,
2017.0,1555.0,2156.0,2206.0,13185999.0,
2016.0,1555.0,2200.0,2229.0,13186002.0,
2017.0,1552.0,2247.0,2253.0,13186006.0,
2016.0,1555.0,2291.0,2272.0,13186010.0,
2017.0,1555.0,2338.0,2293.0,13186013.0,
2016.0,1553.0,2386.0,2314.0,13186017.0,
2018.0,1556.0,2435.0,2333.0,13186021.0,
2018.0,1557.0,2484.0,2350.0,13186024.0,
2017.0,1557.0,2534.0,2365.0,13186028.0,
2016.0,1554.0,2582.0,2375.0,13186031.0,
2017.0,1556.0,2630.0,2395.0,13186035.0,
2017.0,1555.0,2674.0,2402.0,13186039.0,
2017.0,1554.0,2714.0,2414.0,13186042.0,
2017.0,1556.0,2752.0,2427.0,13186046.0,
2018.0,1556.0,2786.0,2428.0,13186050.0,
2017.0,1554.0,2818.0,2436.0,13186053.0,
2017.0,1554.0,2847.0,2440.0,13186057.0,
2015.0,1558.0,2869.0,2442.0,13186061.0,
2017.0,1554.0,2890.0,2446.0,13186064.0,
2016.0,1556.0,2908.0,2442.0,13186068.0,
2018.0,1554.0,2919.0,2438.0,13186071.0,
2017.0,1555.0,2932.0,2438.0,13186075.0,
2017.0,1555.0,2940.0,2435.0,13186079.0,
2018.0,1556.0,2941.0,2432.0,13186082.0,
2017.0,1556.0,2941.0,2427.0,13186086.0,
2017.0,1555.0,2934.0,2423.0,13186090.0,
2018.0,1554.0,2928.0,2422.0,13186093.0,
2017.0,1554.0,2920.0,2422.0,13186097.0,
2018.0,1555.0,2906.0,2419.0,13186101.0,
2017.0,1557.0,2891.0,2418.0,13186104.0,
2014.0,1555.0,2871.0,2414.0,13186108.0,
2017.0,1556.0,2853.0,2409.0,13186111.0,
2017.0,1554.0,2830.0,2404.0,13186115.0,
2016.0,1555.0,2809.0,2399.0,13186119.0,
2017.0,1556.0,2786.0,2395.0,13186122.0,
2018.0,1555.0,2762.0,2391.0,13186126.0,
2018.0,1557.0,2735.0,2382.0,13186130.0,
2017.0,1555.0,2710.0,2378.0,13186133.0,
2018.0,1555.0,2683.0,2374.0,13186137.0,
2018.0,1555.0,2655.0,2371.0,13186140.0,
2018.0,1554.0,2628.0,2367.0,13186144.0,
2018.0,1555.0,2601.0,2365.0,13186148.0,
2016.0,1556.0,2574.0,2361.0,13186151.0,
2017.0,1555.0,2552.0,2360.0,13186155.0,
2014.0,1554.0,2528.0,2356.0,13186159.0,
2017.0,1560.0,2503.0,2350.0,13186162.0,
2017.0,1554.0,2479.0,2344.0,13186166.0,
2018.0,1554.0,2458.0,2331.0,13186170.0,
2017.0,1556.0,2436.0,2326.0,13186173.0,
2019.0,1553.0,2411.0,2317.0,13186177.0,
2018.0,1554.0,2400.0,2306.0,13186180.0,
2017.0,1555.0,2383.0,2297.0,13186184.0,
2017.0,1554.0,2367.0,2288.0,13186188.0,
2017.0,1556.0,2353.0,2277.0,13186191.0,
2017.0,1554.0,2338.0,2269.0,13186195.0,
2025.0,1555.0,2326.0,2263.0,13186199.0,
2016.0,1554.0,2309.0,2253.0,13186202.0,
2018.0,1553.0,2298.0,2245.0,13186206.0,
2018.0,1554.0,2285.0,2237.0,13186210.0,
2019.0,1553.0,2270.0,2229.0,13186213.0,
2017.0,1555.0,2258.0,2220.0,13186217.0,
2017.0,1554.0,2246.0,2213.0,13186220.0,
2017.0,1553.0,2231.0,2203.0,13186224.0,
2018.0,1552.0,2218.0,2195.0,13186228.0,
2018.0,1554.0,2196.0,2185.0,13186231.0,
2018.0,1556.0,2189.0,2179.0,13186235.0,
2017.0,1558.0,2175.0,2170.0,13186239.0,
2017.0,1553.0,2161.0,2164.0,13186242.0,
2017.0,1554.0,2149.0,2158.0,13186246.0,
2018.0,1554.0,2140.0,2149.0,13186250.0,
2018.0,1558.0,2128.0,2142.0,13186253.0,
2017.0,1553.0,2114.0,2135.0,13186257.0,
2017.0,1554.0,2101.0,2128.0,13186260.0,
2018.0,1554.0,2090.0,2125.0,13186264.0,
2016.0,1553.0,2077.0,2127.0,13186268.0,
2018.0,1555.0,2065.0,2114.0,13186271.0,
2018.0,1552.0,2055.0,2111.0,13186275.0,
2018.0,1554.0,2048.0,2104.0,13186279.0,
2018.0,1555.0,2041.0,2103.0,13186282.0,
2018.0,1553.0,2035.0,2100.0,13186286.0,
2017.0,1552.0,2031.0,2095.0,13186290.0,
2017.0,1552.0,2025.0,2093.0,13186293.0,
2017.0,1553.0,2023.0,2093.0,13186297.0,
2018.0,1553.0,2021.0,2091.0,13186300.0,
2017.0,1554.0,2019.0,2095.0,13186304.0,
2017.0,1552.0,2017.0,2092.0,13186308.0,
2018.0,1552.0,2013.0,2090.0,13186311.0,
2017.0,1553.0,2012.0,2088.0,13186315.0,
2016.0,1553.0,2011.0,2088.0,13186319.0,
2018.0,1552.0,2012.0,2086.0,13186322.0,
2018.0,1553.0,2013.0,2084.0,13186326.0,
2017.0,1553.0,2012.0,2078.0,13186329.0,
2017.0,1553.0,2014.0,2078.0,13186333.0,
2017.0,1555.0,2015.0,2078.0,13186337.0,
2018.0,1552.0,2014.0,2070.0,13186340.0,
2018.0,1552.0,2015.0,2068.0,13186344.0,
2017.0,1552.0,2015.0,2066.0,13186348.0,
2017.0,1553.0,2012.0,2060.0,13186351.0,
2017.0,1552.0,2011.0,2055.0,13186355.0,
2017.0,1553.0,2012.0,2051.0,13186359.0,
2018.0,1556.0,2012.0,2047.0,13186362.0,
2018.0,1553.0,2010.0,2044.0,13186366.0,
2018.0,1553.0,2010.0,2038.0,13186369.0,
2017.0,1551.0,2008.0,2039.0,13186373.0,
2017.0,1554.0,2012.0,2036.0,13186377.0,
2017.0,1552.0,2009.0,2035.0,13186380.0,
2017.0,1551.0,2006.0,2034.0,13186384.0,
2017.0,1551.0,2006.0,2028.0,13186388.0,
2017.0,1554.0,2007.0,2025.0,13186391.0,
2017.0,1550.0,2004.0,2021.0,13186395.0,
2017.0,1554.0,2005.0,2018.0,13186399.0,
2017.0,1553.0,2000.0,2013.0,13186402.0,
2018.0,1553.0,2000.0,2015.0,13186406.0,
2017.0,1555.0,1994.0,2007.0,13186409.0,
2018.0,1551.0,1993.0,2002.0,13186413.0,
2017.0,1552.0,1988.0,1996.0,13186417.0,
2016.0,1552.0,1983.0,1989.0,13186420.0,
2017.0,1552.0,1979.0,1986.0,13186424.0,
2017.0,1556.0,1973.0,1975.0,13186428.0,
2017.0,1552.0,1969.0,1974.0,13186431.0,
2017.0,1552.0,1961.0,1967.0,13186435.0,
2018.0,1551.0,1955.0,1962.0,13186439.0,
2016.0,1552.0,1950.0,1958.0,13186442.0,
2018.0,1550.0,1942.0,1959.0,13186446.0,
2017.0,1553.0,1937.0,1952.0,13186449.0,
2017.0,1553.0,1929.0,1949.0,13186453.0,
2017.0,1551.0,1921.0,1951.0,13186457.0,
2017.0,1552.0,1914.0,1947.0,13186460.0,
2018.0,1548.0,1908.0,1947.0,13186464.0,
2017.0,1551.0,1899.0,1940.0,13186468.0,
2018.0,1552.0,1893.0,1940.0,13186471.0,
2018.0,1552.0,1889.0,1939.0,13186475.0,
2017.0,1550.0,1879.0,1936.0,13186479.0,
2017.0,1551.0,1877.0,1935.0,13186482.0,
2018.0,1551.0,1868.0,1934.0,13186486.0,
2019.0,1551.0,1865.0,1930.0,13186489.0,
2017.0,1552.0,1858.0,1930.0,13186493.0,
2018.0,1551.0,1854.0,1925.0,13186497.0,
2017.0,1554.0,1850.0,1928.0,13186500.0,
2018.0,1550.0,1848.0,1927.0,13186504.0,
2017.0,1551.0,1847.0,1926.0,13186508.0,
2017.0,1551.0,1844.0,1921.0,13186511.0,
2017.0,1552.0,1843.0,1923.0,13186515.0,
2018.0,1549.0,1843.0,1918.0,13186518.0,
2018.0,1551.0,1841.0,1917.0,13186522.0,
2017.0,1552.0,1839.0,1921.0,13186526.0,
2017.0,1548.0,1838.0,1914.0,13186529.0,
2018.0,1551.0,1835.0,1911.0,13186533.0,
2017.0,1550.0,1836.0,1906.0,13186537.0,
2017.0,1551.0,1836.0,1907.0,13186540.0,
2019.0,1551.0,1833.0,1909.0,13186544.0,
2019.0,1550.0,1832.0,1894.0,13186548.0,
2017.0,1548.0,1829.0,1896.0,13186551.0,
2017.0,1551.0,1831.0,1898.0,13186555.0,
2018.0,1551.0,1830.0,1892.0,13186558.0,
2022.0,1552.0,1829.0,1890.0,13186562.0,
2017.0,1550.0,1826.0,1892.0,13186566.0,
2014.0,1551.0,1827.0,1889.0,13186569.0,
2018.0,1552.0,1833.0,1892.0,13186573.0,
2017.0,1550.0,1823.0,1891.0,13186577.0,
2018.0,1550.0,1824.0,1891.0,13186580.0,
2017.0,1549.0,1824.0,1894.0,13186584.0,
2017.0,1551.0,1823.0,1892.0,13186588.0,
2017.0,1551.0,1824.0,1894.0,13186591.0,
2017.0,1551.0,1826.0,1896.0,13186595.0,
2016.0,1552.0,1827.0,1894.0,13186598.0,
2017.0,1551.0,1828.0,1897.0,13186602.0,
2017.0,1547.0,1827.0,1898.0,13186606.0,
2012.0,1551.0,1829.0,1896.0,13186609.0,
2017.0,1551.0,1832.0,1894.0,13186613.0,
2017.0,1550.0,1833.0,1889.0,13186617.0,
2017.0,1551.0,1833.0,1889.0,13186620.0,
2017.0,1551.0,1837.0,1887.0,13186624.0,
2017.0,1550.0,1836.0,1885.0,13186628.0,
2017.0,1552.0,1837.0,1879.0,13186631.0,
2017.0,1550.0,1839.0,1881.0,13186635.0,
2017.0,1551.0,1841.0,1872.0,13186638.0,
2017.0,1551.0,1848.0,1872.0,13186642.0,
2017.0,1551.0,1845.0,1871.0,13186646.0,
2018.0,1551.0,1846.0,1871.0,13186649.0,
2017.0,1552.0,1849.0,1867.0,13186653.0,
2018.0,1551.0,1850.0,1865.0,13186657.0,
2018.0,1552.0,1852.0,1859.0,13186660.0,
2017.0,1550.0,1858.0,1858.0,13186664.0,
2017.0,1549.0,1859.0,1854.0,13186668.0,
2018.0,1550.0,1858.0,1852.0,13186671.0,
2016.0,1550.0,1861.0,1851.0,13186675.0,
2017.0,1552.0,1863.0,1853.0,13186678.0,
2017.0,1551.0,1863.0,1850.0,13186682.0,
2016.0,1551.0,1864.0,1852.0,13186686.0,
2017.0,1553.0,1863.0,1850.0,13186689.0,
2016.0,1551.0,1863.0,1850.0,13186693.0,
2018.0,1551.0,1863.0,1850.0,13186697.0,
2017.0,1552.0,1862.0,1849.0,13186700.0,
2017.0,1552.0,1860.0,1850.0,13186704.0,
2016.0,1553.0,1864.0,1847.0,13186708.0,
2017.0,1551.0,1856.0,1848.0,13186711.0,
2019.0,1550.0,1857.0,1851.0,13186715.0,
2017.0,1550.0,1854.0,1853.0,13186718.0,
2018.0,1551.0,1851.0,1853.0,13186722.0,
2017.0,1552.0,1849.0,1852.0,13186726.0,
2017.0,1552.0,1846.0,1847.0,13186729.0,
2018.0,1552.0,1842.0,1846.0,13186733.0,
2017.0,1551.0,1843.0,1841.0,13186737.0,
2017.0,1551.0,1841.0,1834.0,13186740.0,
2017.0,1552.0,1840.0,1835.0,13186744.0,
2018.0,1553.0,1839.0,1831.0,13186747.0,
2020.0,1551.0,1840.0,1825.0,13186751.0,
2017.0,1551.0,1839.0,1831.0,13186755.0,
2017.0,1551.0,1839.0,1820.0,13186758.0,
2017.0,1551.0,1845.0,1819.0,13186762.0,
2017.0,1552.0,1838.0,1814.0,13186766.0,
2017.0,1552.0,1838.0,1809.0,13186769.0,
2019.0,1551.0,1838.0,1807.0,13186773.0,
2020.0,1552.0,1837.0,1807.0,13186777.0,
2018.0,1554.0,1837.0,1803.0,13186780.0,
2017.0,1553.0,1836.0,1808.0,13186784.0,
2017.0,1553.0,1834.0,1807.0,13186787.0,
2018.0,1554.0,1832.0,1808.0,13186791.0,
2018.0,1553.0,1832.0,1813.0,13186795.0,
2017.0,1553.0,1832.0,1810.0,13186798.0,
2018.0,1552.0,1834.0,1815.0,13186802.0,
2018.0,1552.0,1830.0,1816.0,13186806.0,
2017.0,1552.0,1827.0,1815.0,13186809.0,
2017.0,1554.0,1827.0,1816.0,13186813.0,
2016.0,1553.0,1827.0,1817.0,13186817.0,
2018.0,1552.0,1825.0,1816.0,13186820.0,
2014.0,1553.0,1823.0,1816.0,13186824.0,
2017.0,1554.0,1822.0,1813.0,13186827.0,
2016.0,1553.0,1823.0,1810.0,13186831.0,
2016.0,1552.0,1823.0,1811.0,13186835.0,
2018.0,1553.0,1823.0,1806.0,13186838.0,
2018.0,1553.0,1822.0,1805.0,13186842.0,
2017.0,1553.0,1822.0,1809.0,13186846.0,
2017.0,1554.0,1817.0,1806.0,13186849.0,
2017.0,1553.0,1819.0,1805.0,13186853.0,
2017.0,1553.0,1814.0,1813.0,13186857.0,
2016.0,1553.0,1812.0,1809.0,13186860.0,
2017.0,1553.0,1809.0,1813.0,13186864.0,
2018.0,1553.0,1805.0,1808.0,13186867.0,
2017.0,1553.0,1808.0,1810.0,13186871.0,
2017.0,1554.0,1806.0,1812.0,13186875.0,
2018.0,1554.0,1808.0,1812.0,13186878.0,
2018.0,1552.0,1805.0,1811.0,13186882.0,
2017.0,1554.0,1807.0,1813.0,13186886.0,
2017.0,1555.0,1808.0,1809.0,13186889.0,
2018.0,1555.0,1806.0,1812.0,13186893.0,
2017.0,1556.0,1808.0,1812.0,13186897.0,
2017.0,1555.0,1809.0,1809.0,13186900.0,
2018.0,1555.0,1808.0,1809.0,13186904.0,
2018.0,1553.0,1810.0,1807.0,13186907.0,
2017.0,1554.0,1810.0,1805.0,13186911.0,
2019.0,1554.0,1813.0,1804.0,13186915.0,
2017.0,1555.0,1815.0,1809.0,13186918.0,
2017.0,1554.0,1816.0,1809.0,13186922.0,
2017.0,1555.0,1820.0,1812.0,13186926.0,
2018.0,1554.0,1823.0,1811.0,13186929.0,
2017.0,1554.0,1822.0,1813.0,13186933.0,
2017.0,1556.0,1825.0,1815.0,13186936.0,
2017.0,1553.0,1832.0,1816.0,13186940.0,
2017.0,1553.0,1827.0,1822.0,13186944.0,
2018.0,1551.0,1828.0,1827.0,13186947.0,
2017.0,1554.0,1831.0,1832.0,13186951.0,
2018.0,1554.0,1833.0,1839.0,13186955.0,
2018.0,1555.0,1831.0,1847.0,13186958.0,
2020.0,1554.0,1831.0,1856.0,13186962.0,
2018.0,1554.0,1831.0,1869.0,13186966.0,
2018.0,1555.0,1831.0,1883.0,13186969.0,
2017.0,1555.0,1831.0,1900.0,13186973.0,
2017.0,1555.0,1831.0,1915.0,13186976.0,
2017.0,1555.0,1834.0,1931.0,13186980.0,
2018.0,1555.0,1837.0,1949.0,13186984.0,
2017.0,1555.0,1843.0,1967.0,13186987.0,
2018.0,1555.0,1847.0,1988.0,13186991.0,
2017.0,1555.0,1858.0,2008.0,13186995.0,
2023.0,1557.0,1870.0,2031.0,13186998.0,
2017.0,1554.0,1884.0,2053.0,13187002.0,
2018.0,1555.0,1900.0,2082.0,13187006.0,
2018.0,1554.0,1917.0,2101.0,13187009.0,
2017.0,1554.0,1942.0,2133.0,13187013.0,
2018.0,1556.0,1966.0,2160.0,13187016.0,
2018.0,1554.0,1999.0,2185.0,13187020.0,
2017.0,1556.0,2032.0,2210.0,13187024.0,
2017.0,1554.0,2067.0,2236.0,13187027.0,
2017.0,1555.0,2106.0,2261.0,13187031.0,
2017.0,1554.0,2146.0,2285.0,13187035.0,
2018.0,1553.0,2189.0,2308.0,13187038.0,
2019.0,1557.0,2235.0,2332.0,13187042.0,
2019.0,1555.0,2279.0,2353.0,13187046.0,
2019.0,1555.0,2327.0,2374.0,13187049.0,
2018.0,1555.0,2375.0,2394.0,13187053.0,
2018.0,1555.0,2422.0,2410.0,13187056.0,
2017.0,1556.0,2470.0,2428.0,13187060.0,
2018.0,1555.0,2518.0,2440.0,13187064.0,
2019.0,1555.0,2562.0,2451.0,13187067.0,
2018.0,1551.0,2602.0,2467.0,13187071.0,
2018.0,1555.0,2645.0,2476.0,13187075.0,
2019.0,1556.0,2681.0,2482.0,13187078.0,
2019.0,1555.0,2715.0,2493.0,13187082.0,
2019.0,1556.0,2749.0,2499.0,13187086.0,
2018.0,1556.0,2776.0,2505.0,13187089.0,
2018.0,1557.0,2801.0,2518.0,13187093.0,
2018.0,1559.0,2821.0,2516.0,13187096.0,
2019.0,1558.0,2838.0,2520.0,13187100.0,
2019.0,1556.0,2851.0,2522.0,13187104.0,
2020.0,1556.0,2860.0,2528.0,13187107.0,
2019.0,1556.0,2865.0,2530.0,13187111.0,
2018.0,1553.0,2871.0,2530.0,13187115.0,
2018.0,1556.0,2870.0,2526.0,13187118.0,
2019.0,1563.0,2866.0,2520.0,13187122.0,
2019.0,1556.0,2857.0,2516.0,13187126.0,
2019.0,1557.0,2845.0,2511.0,13187129.0,
2018.0,1558.0,2837.0,2504.0,13187133.0,
2020.0,1558.0,2818.0,2497.0,13187136.0,
2019.0,1557.0,2799.0,2488.0,13187140.0,
2019.0,1554.0,2780.0,2480.0,13187144.0,
2018.0,1556.0,2760.0,2473.0,13187147.0,
2018.0,1560.0,2736.0,2466.0,13187151.0,
2019.0,1557.0,2711.0,2460.0,13187155.0,
2019.0,1556.0,2686.0,2450.0,13187158.0,
2019.0,1559.0,2658.0,2445.0,13187162.0,
2019.0,1558.0,2631.0,2433.0,13187165.0,
2018.0,1558.0,2603.0,2426.0,13187169.0,
2017.0,1555.0,2577.0,2422.0,13187173.0,
2019.0,1561.0,2550.0,2411.0,13187176.0,
2020.0,1557.0,2522.0,2404.0,13187180.0,
2019.0,1557.0,2498.0,2398.0,13187184.0,
2019.0,1558.0,2475.0,2394.0,13187187.0,
2019.0,1559.0,2453.0,2383.0,13187191.0,
2019.0,1557.0,2426.0,2375.0,13187195.0,
2018.0,1558.0,2405.0,2368.0,13187198.0,
2018.0,1565.0,2383.0,2364.0,13187202.0,
2018.0,1560.0,2361.0,2360.0,13187205.0,
2017.0,1558.0,2341.0,2351.0,13187209.0,
2020.0,1559.0,2321.0,2344.0,13187213.0,
2019.0,1559.0,2304.0,2336.0,13187216.0,
2018.0,1559.0,2285.0,2329.0,13187220.0,
2019.0,1561.0,2269.0,2324.0,13187224.0,
2019.0,1557.0,2253.0,2316.0,13187227.0,
2019.0,1558.0,2239.0,2312.0,13187231.0,
2020.0,1560.0,2223.0,2298.0,13187235.0,
2019.0,1558.0,2208.0,2288.0,13187238.0,
2019.0,1558.0,2193.0,2278.0,13187242.0,
2019.0,1559.0,2178.0,2271.0,13187245.0,
2018.0,1562.0,2167.0,2260.0,13187249.0,
2018.0,1560.0,2154.0,2251.0,13187253.0,
2018.0,1559.0,2143.0,2242.0,13187256.0,
2019.0,1559.0,2129.0,2234.0,13187260.0,
2022.0,1559.0,2117.0,2232.0,13187264.0,
2019.0,1561.0,2106.0,2225.0,13187267.0,
2018.0,1560.0,2093.0,2221.0,13187271.0,
2019.0,1561.0,2080.0,2216.0,13187275.0,
2018.0,1560.0,2070.0,2211.0,13187278.0,
2012.0,1559.0,2059.0,2208.0,13187282.0,
2019.0,1559.0,2049.0,2204.0,13187285.0,
2018.0,1560.0,2039.0,2201.0,13187289.0,
2020.0,1560.0,2030.0,2198.0,13187293.0,
2018.0,1558.0,2019.0,2196.0,13187296.0,
2019.0,1560.0,2014.0,2198.0,13187300.0,
2018.0,1560.0,2005.0,2194.0,13187304.0,
2019.0,1560.0,2002.0,2192.0,13187307.0,
2019.0,1560.0,1995.0,2193.0,13187311.0,
2019.0,1560.0,1992.0,2191.0,13187315.0,
2018.0,1561.0,1988.0,2189.0,13187318.0,
2020.0,1560.0,1981.0,2185.0,13187322.0,
2019.0,1560.0,1979.0,2183.0,13187325.0,
2018.0,1561.0,1980.0,2180.0,13187329.0,
2019.0,1564.0,1978.0,2178.0,13187333.0,
2018.0,1560.0,1979.0,2180.0,13187336.0,
2020.0,1561.0,1976.0,2174.0,13187340.0,
2019.0,1561.0,1978.0,2178.0,13187344.0,
2020.0,1560.0,1983.0,2175.0,13187347.0,
2018.0,1560.0,1983.0,2178.0,13187351.0,
2023.0,1562.0,1988.0,2176.0,13187354.0,
2018.0,1561.0,1989.0,2173.0,13187358.0,
2018.0,1561.0,1993.0,2170.0,13187362.0,
2019.0,1562.0,1995.0,2167.0,13187365.0,
2019.0,1559.0,1999.0,2160.0,13187369.0,
2020.0,1561.0,2002.0,2154.0,13187373.0,
2018.0,1561.0,2008.0,2148.0,13187376.0,
2018.0,1561.0,2009.0,2137.0,13187380.0,
2020.0,1562.0,2017.0,2131.0,13187384.0,
2017.0,1562.0,2018.0,2121.0,13187387.0,
2019.0,1558.0,2024.0,2111.0,13187391.0,
2019.0,1560.0,2026.0,2102.0,13187394.0,
2019.0,1560.0,2028.0,2091.0,13187398.0,
2019.0,1561.0,2030.0,2083.0,13187402.0,
2019.0,1562.0,2029.0,2074.0,13187405.0,
2019.0,1563.0,2029.0,2062.0,13187409.0,
2018.0,1561.0,2030.0,2053.0,13187413.0,
2019.0,1562.0,2026.0,2042.0,13187416.0,
2020.0,1556.0,2023.0,2037.0,13187420.0,
2018.0,1561.0,2020.0,2030.0,13187424.0,
2018.0,1561.0,2017.0,2025.0,13187427.0,
2018.0,1562.0,2012.0,2020.0,13187431.0,
2018.0,1562.0,2008.0,2012.0,13187434.0,
2019.0,1562.0,2012.0,2006.0,13187438.0,
2018.0,1562.0,1997.0,2002.0,13187442.0,
2018.0,1561.0,1993.0,1998.0,13187445.0,
2018.0,1561.0,1989.0,1986.0,13187449.0,
2018.0,1562.0,1978.0,1982.0,13187453.0,
2017.0,1562.0,1970.0,1975.0,13187456.0,
2019.0,1562.0,1963.0,1970.0,13187460.0,
2015.0,1561.0,1956.0,1965.0,13187464.0,
2019.0,1560.0,1949.0,1956.0,13187467.0,
2019.0,1562.0,1939.0,1952.0,13187471.0,
2019.0,1562.0,1932.0,1952.0,13187474.0,
2018.0,1561.0,1926.0,1952.0,13187478.0,
2018.0,1561.0,1920.0,1950.0,13187482.0,
2018.0,1561.0,1910.0,1951.0,13187485.0,
2018.0,1563.0,1905.0,1949.0,13187489.0,
2018.0,1561.0,1902.0,1952.0,13187493.0,
2018.0,1562.0,1898.0,1950.0,13187496.0,
2018.0,1562.0,1892.0,1947.0,13187500.0,
2019.0,1563.0,1888.0,1944.0,13187504.0,
2019.0,1562.0,1883.0,1943.0,13187507.0,
2020.0,1564.0,1878.0,1941.0,13187511.0,
2018.0,1567.0,1874.0,1935.0,13187514.0,
2018.0,1562.0,1873.0,1929.0,13187518.0,
2018.0,1562.0,1870.0,1931.0,13187522.0,
2018.0,1563.0,1867.0,1928.0,13187525.0,
2018.0,1561.0,1861.0,1926.0,13187529.0,
2019.0,1567.0,1861.0,1925.0,13187533.0,
2018.0,1562.0,1857.0,1923.0,13187536.0,
2021.0,1560.0,1856.0,1919.0,13187540.0,
2019.0,1561.0,1855.0,1923.0,13187544.0,
2025.0,1562.0,1853.0,1920.0,13187547.0,
2018.0,1561.0,1848.0,1922.0,13187551.0,
2018.0,1557.0,1849.0,1915.0,13187554.0,
2018.0,1561.0,1847.0,1917.0,13187558.0,
2018.0,1561.0,1847.0,1917.0,13187562.0,
2019.0,1563.0,1849.0,1923.0,13187565.0,
2019.0,1560.0,1848.0,1921.0,13187569.0,
2018.0,1560.0,1849.0,1928.0,13187573.0,
2018.0,1561.0,1850.0,1928.0,13187576.0,
2019.0,1560.0,1852.0,1929.0,13187580.0,
2019.0,1561.0,1851.0,1934.0,13187583.0,
2019.0,1562.0,1853.0,1932.0,13187587.0,
2018.0,1561.0,1848.0,1933.0,13187591.0,
2017.0,1558.0,1854.0,1934.0,13187594.0,
2019.0,1561.0,1855.0,1930.0,13187598.0,
2018.0,1561.0,1858.0,1935.0,13187602.0,
2019.0,1559.0,1857.0,1936.0,13187605.0,
2019.0,1560.0,1857.0,1936.0,13187609.0,
2017.0,1560.0,1860.0,1939.0,13187613.0,
2018.0,1557.0,1864.0,1938.0,13187616.0,
2018.0,1559.0,1863.0,1938.0,13187620.0,
2017.0,1561.0,1866.0,1936.0,13187623.0,
2019.0,1560.0,1862.0,1938.0,13187627.0,
2018.0,1560.0,1870.0,1937.0,13187631.0,
2018.0,1557.0,1872.0,1931.0,13187634.0,
2019.0,1560.0,1874.0,1936.0,13187638.0,
2018.0,1559.0,1873.0,1938.0,13187642.0,
2019.0,1559.0,1874.0,1936.0,13187645.0,
2015.0,1559.0,1877.0,1931.0,13187649.0,
2018.0,1559.0,1879.0,1932.0,13187653.0,
2018.0,1560.0,1883.0,1934.0,13187656.0,
2019.0,1558.0,1884.0,1931.0,13187660.0,
2019.0,1559.0,1881.0,1932.0,13187663.0,
2018.0,1558.0,1884.0,1931.0,13187667.0,
2018.0,1559.0,1885.0,1932.0,13187671.0,
2018.0,1558.0,1884.0,1930.0,13187674.0,
2017.0,1560.0,1884.0,1924.0,13187678.0,
2018.0,1558.0,1882.0,1922.0,13187682.0,
2018.0,1559.0,1878.0,1918.0,13187685.0,
2019.0,1558.0,1876.0,1914.0,13187689.0,
