EDA,Resp,PPG Finger,PPG Ear,arduino_ts,event_code
1223.0,3862.0,1903.0,1899.0,13402658.0,
1224.0,3862.0,1908.0,1897.0,13402661.0,
1226.0,3860.0,1909.0,1895.0,13402665.0,
1225.0,3864.0,1913.0,1904.0,13402669.0,
1223.0,3862.0,1913.0,1896.0,13402673.0,
1223.0,3863.0,1917.0,1899.0,13402677.0,
1225.0,3857.0,1918.0,1900.0,13402681.0,
1226.0,3861.0,1921.0,1901.0,13402684.0,
1225.0,3860.0,1921.0,1899.0,13402688.0,
1224.0,3861.0,1921.0,1901.0,13402692.0,
1224.0,3863.0,1923.0,1903.0,13402696.0,
1225.0,3864.0,1924.0,1904.0,13402700.0,
1226.0,3862.0,1922.0,1902.0,13402704.0,
1225.0,3863.0,1923.0,1905.0,13402708.0,
1224.0,3862.0,1922.0,1904.0,13402712.0,
1222.0,3863.0,1919.0,1906.0,13402716.0,
1224.0,3862.0,1913.0,1907.0,13402719.0,
1226.0,3861.0,1909.0,1907.0,13402723.0,
1227.0,3862.0,1906.0,1907.0,13402727.0,
1223.0,3865.0,1903.0,1911.0,13402731.0,
1223.0,3863.0,1896.0,1907.0,13402735.0,
1224.0,3861.0,1895.0,1907.0,13402739.0,
1226.0,3863.0,1887.0,1903.0,13402744.0,
1226.0,3860.0,1890.0,1904.0,13402747.0,
1224.0,3862.0,1886.0,1905.0,13402751.0,
1223.0,3865.0,1882.0,1903.0,13402755.0,
1225.0,3860.0,1882.0,1907.0,13402759.0,
1225.0,3863.0,1879.0,1911.0,13402763.0,
1226.0,3862.0,1880.0,1915.0,13402767.0,
1225.0,3861.0,1880.0,1918.0,13402771.0,
1223.0,3863.0,1880.0,1925.0,13402775.0,
1224.0,3860.0,1881.0,1930.0,13402778.0,
1226.0,3861.0,1881.0,1944.0,13402782.0,
1226.0,3863.0,1879.0,1957.0,13402786.0,
1224.0,3862.0,1878.0,1963.0,13402790.0,
1223.0,3865.0,1877.0,1976.0,13402794.0,
1224.0,3860.0,1876.0,1992.0,13402798.0,
1225.0,3862.0,1874.0,2013.0,13402802.0,
1225.0,3860.0,1876.0,2029.0,13402805.0,
1225.0,3863.0,1875.0,2052.0,13402809.0,
1223.0,3864.0,1878.0,2069.0,13402813.0,
1224.0,3864.0,1878.0,2090.0,13402817.0,
1225.0,3861.0,1880.0,2107.0,13402821.0,
1226.0,3863.0,1881.0,2125.0,13402825.0,
1224.0,3861.0,1882.0,2143.0,13402829.0,
1224.0,3863.0,1879.0,2163.0,13402833.0,
1224.0,3862.0,1881.0,2182.0,13402837.0,
1225.0,3866.0,1883.0,2192.0,13402841.0,
1226.0,3861.0,1886.0,2207.0,13402846.0,
1225.0,3863.0,1886.0,2215.0,13402849.0,
1224.0,3864.0,1888.0,2231.0,13402853.0,
1224.0,3864.0,1890.0,2241.0,13402857.0,
1226.0,3864.0,1893.0,2250.0,13402861.0,
1226.0,3864.0,1896.0,2258.0,13402865.0,
1225.0,3861.0,1898.0,2265.0,13402869.0,
1224.0,3864.0,1896.0,2278.0,13402873.0,
1224.0,3860.0,1898.0,2286.0,13402877.0,
1226.0,3859.0,1901.0,2292.0,13402881.0,
1227.0,3863.0,1904.0,2300.0,13402886.0,
1225.0,3863.0,1904.0,2308.0,13402890.0,
1225.0,3861.0,1906.0,2314.0,13402894.0,
1224.0,3864.0,1906.0,2319.0,13402898.0,
1226.0,3861.0,1908.0,2319.0,13402902.0,
1227.0,3862.0,1908.0,2324.0,13402906.0,
1225.0,3860.0,1913.0,2325.0,13402910.0,
1224.0,3863.0,1911.0,2334.0,13402913.0,
1223.0,3865.0,1911.0,2332.0,13402917.0,
1225.0,3864.0,1918.0,2332.0,13402921.0,
1227.0,3862.0,1922.0,2330.0,13402925.0,
1226.0,3862.0,1924.0,2331.0,13402929.0,
1224.0,3862.0,1929.0,2331.0,13402933.0,
1224.0,3862.0,1932.0,2328.0,13402937.0,
1226.0,3863.0,1940.0,2325.0,13402941.0,
1227.0,3862.0,1943.0,2323.0,13402945.0,
1226.0,3864.0,1947.0,2324.0,13402949.0,
1225.0,3864.0,1951.0,2320.0,13402952.0,
1224.0,3865.0,1959.0,2323.0,13402956.0,
1226.0,3865.0,1964.0,2317.0,13402960.0,
1226.0,3863.0,1971.0,2314.0,13402964.0,
1226.0,3863.0,1978.0,2310.0,13402968.0,
1225.0,3864.0,1982.0,2307.0,13402972.0,
1224.0,3860.0,1988.0,2301.0,13402976.0,
1226.0,3865.0,1994.0,2295.0,13402980.0,
1226.0,3860.0,1997.0,2289.0,13402984.0,
1226.0,3862.0,2000.0,2284.0,13402987.0,
1226.0,3865.0,2002.0,2277.0,13402992.0,
1225.0,3862.0,2004.0,2268.0,13402995.0,
1225.0,3865.0,2003.0,2261.0,13402999.0,
1226.0,3863.0,2008.0,2253.0,13403003.0,
1226.0,3864.0,2011.0,2245.0,13403007.0,
1226.0,3863.0,2015.0,2238.0,13403011.0,
1225.0,3865.0,2017.0,2231.0,13403015.0,
1225.0,3862.0,2015.0,2220.0,13403018.0,
1227.0,3861.0,2018.0,2216.0,13403022.0,
1227.0,3862.0,2018.0,2210.0,13403026.0,
1226.0,3863.0,2015.0,2201.0,13403030.0,
1224.0,3863.0,2013.0,2196.0,13403034.0,
1226.0,3864.0,2010.0,2192.0,13403038.0,
1226.0,3862.0,2009.0,2185.0,13403042.0,
1227.0,3865.0,2005.0,2180.0,13403046.0,
1226.0,3865.0,2002.0,2175.0,13403050.0,
1224.0,3864.0,1996.0,2173.0,13403054.0,
1225.0,3863.0,1991.0,2167.0,13403058.0,
1227.0,3865.0,1983.0,2168.0,13403062.0,
1226.0,3863.0,1978.0,2163.0,13403066.0,
1226.0,3864.0,1972.0,2160.0,13403070.0,
1225.0,3863.0,1967.0,2155.0,13403073.0,
1225.0,3865.0,1962.0,2153.0,13403077.0,
1226.0,3865.0,1956.0,2151.0,13403081.0,
1227.0,3864.0,1955.0,2147.0,13403085.0,
1226.0,3864.0,1951.0,2143.0,13403089.0,
1225.0,3863.0,1947.0,2137.0,13403093.0,
1225.0,3861.0,1944.0,2135.0,13403097.0,
1226.0,3864.0,1943.0,2132.0,13403101.0,
1227.0,3861.0,1943.0,2131.0,13403105.0,
1227.0,3865.0,1940.0,2129.0,13403109.0,
1225.0,3862.0,1942.0,2123.0,13403113.0,
1224.0,3865.0,1940.0,2120.0,13403116.0,
1226.0,3866.0,1939.0,2120.0,13403120.0,
1227.0,3863.0,1941.0,2118.0,13403124.0,
1227.0,3863.0,1944.0,2115.0,13403128.0,
1225.0,3865.0,1945.0,2112.0,13403132.0,
1225.0,3863.0,1949.0,2110.0,13403136.0,
1226.0,3866.0,1950.0,2112.0,13403140.0,
1226.0,3863.0,1951.0,2107.0,13403144.0,
1227.0,3865.0,1955.0,2108.0,13403148.0,
1225.0,3863.0,1959.0,2104.0,13403151.0,
1224.0,3865.0,1962.0,2104.0,13403155.0,
1225.0,3862.0,1966.0,2100.0,13403159.0,
1228.0,3864.0,1963.0,2096.0,13403163.0,
1227.0,3866.0,1966.0,2094.0,13403167.0,
1226.0,3863.0,1962.0,2091.0,13403171.0,
1224.0,3864.0,1962.0,2094.0,13403175.0,
1226.0,3864.0,1960.0,2088.0,13403180.0,
1227.0,3861.0,1961.0,2085.0,13403184.0,
1227.0,3868.0,1962.0,2077.0,13403188.0,
1225.0,3865.0,1963.0,2076.0,13403191.0,
1225.0,3866.0,1963.0,2075.0,13403195.0,
1226.0,3865.0,1965.0,2068.0,13403199.0,
1227.0,3865.0,1964.0,2061.0,13403203.0,
1227.0,3863.0,1964.0,2056.0,13403207.0,
1226.0,3863.0,1964.0,2050.0,13403211.0,
1224.0,3866.0,1965.0,2047.0,13403215.0,
1226.0,3865.0,1966.0,2038.0,13403218.0,
1226.0,3864.0,1962.0,2037.0,13403222.0,
1226.0,3865.0,1961.0,2034.0,13403228.0,
1227.0,3864.0,1959.0,2030.0,13403232.0,
1225.0,3861.0,1957.0,2027.0,13403236.0,
1227.0,3865.0,1954.0,2025.0,13403241.0,
1227.0,3862.0,1954.0,2023.0,13403244.0,
1226.0,3861.0,1950.0,2021.0,13403248.0,
1224.0,3864.0,1952.0,2024.0,13403252.0,
1226.0,3865.0,1951.0,2023.0,13403256.0,
1226.0,3862.0,1952.0,2024.0,13403260.0,
1226.0,3867.0,1949.0,2021.0,13403264.0,
1227.0,3865.0,1951.0,2018.0,13403268.0,
1224.0,3865.0,1950.0,2015.0,13403272.0,
1225.0,3864.0,1954.0,2009.0,13403276.0,
1226.0,3866.0,1953.0,2005.0,13403279.0,
1226.0,3865.0,1957.0,2000.0,13403283.0,
1227.0,3867.0,1956.0,1998.0,13403287.0,
1225.0,3866.0,1958.0,1989.0,13403291.0,
1225.0,3863.0,1958.0,1983.0,13403295.0,
1226.0,3865.0,1955.0,1981.0,13403299.0,
1227.0,3864.0,1959.0,1980.0,13403303.0,
1227.0,3865.0,1959.0,1972.0,13403307.0,
1226.0,3862.0,1958.0,1966.0,13403311.0,
1226.0,3866.0,1958.0,1963.0,13403314.0,
1225.0,3865.0,1962.0,1960.0,13403318.0,
1226.0,3865.0,1961.0,1956.0,13403322.0,
1227.0,3866.0,1961.0,1954.0,13403326.0,
1226.0,3862.0,1964.0,1952.0,13403330.0,
1226.0,3865.0,1961.0,1951.0,13403334.0,
1225.0,3863.0,1962.0,1944.0,13403338.0,
1228.0,3863.0,1959.0,1943.0,13403341.0,
1228.0,3866.0,1959.0,1942.0,13403346.0,
1226.0,3864.0,1963.0,1934.0,13403350.0,
1226.0,3866.0,1965.0,1937.0,13403354.0,
1225.0,3864.0,1965.0,1932.0,13403357.0,
1226.0,3865.0,1963.0,1932.0,13403361.0,
1227.0,3865.0,1965.0,1927.0,13403365.0,
1226.0,3862.0,1967.0,1925.0,13403369.0,
1224.0,3864.0,1968.0,1925.0,13403373.0,
1225.0,3866.0,1969.0,1919.0,13403377.0,
1226.0,3862.0,1972.0,1920.0,13403381.0,
1227.0,3867.0,1974.0,1918.0,13403385.0,
1226.0,3863.0,1974.0,1919.0,13403389.0,
1225.0,3866.0,1976.0,1917.0,13403393.0,
1224.0,3864.0,1979.0,1920.0,13403397.0,
1227.0,3865.0,1979.0,1920.0,13403401.0,
1227.0,3863.0,1983.0,1917.0,13403405.0,
1226.0,3866.0,1983.0,1916.0,13403409.0,
1225.0,3864.0,1983.0,1915.0,13403413.0,
1225.0,3867.0,1985.0,1913.0,13403417.0,
1227.0,3865.0,1983.0,1914.0,13403421.0,
1227.0,3865.0,1978.0,1915.0,13403425.0,
1226.0,3864.0,1978.0,1918.0,13403429.0,
1225.0,3866.0,1978.0,1917.0,13403432.0,
1225.0,3864.0,1975.0,1912.0,13403436.0,
1226.0,3866.0,1973.0,1915.0,13403440.0,
1227.0,3866.0,1974.0,1915.0,13403444.0,
1229.0,3865.0,1971.0,1913.0,13403448.0,
1225.0,3865.0,1971.0,1911.0,13403452.0,
1225.0,3864.0,1970.0,1907.0,13403456.0,
1226.0,3866.0,1966.0,1907.0,13403460.0,
1228.0,3865.0,1965.0,1903.0,13403464.0,
1227.0,3866.0,1965.0,1902.0,13403467.0,
1225.0,3866.0,1960.0,1900.0,13403471.0,
1225.0,3864.0,1958.0,1899.0,13403475.0,
1226.0,3862.0,1958.0,1892.0,13403479.0,
1227.0,3864.0,1957.0,1890.0,13403483.0,
1227.0,3866.0,1954.0,1890.0,13403487.0,
1227.0,3865.0,1950.0,1890.0,13403491.0,
1225.0,3864.0,1947.0,1893.0,13403495.0,
1226.0,3867.0,1943.0,1889.0,13403499.0,
1226.0,3865.0,1942.0,1892.0,13403503.0,
1227.0,3866.0,1941.0,1894.0,13403507.0,
1226.0,3864.0,1941.0,1893.0,13403511.0,
1225.0,3865.0,1940.0,1891.0,13403515.0,
1226.0,3863.0,1943.0,1892.0,13403519.0,
1227.0,3867.0,1942.0,1895.0,13403523.0,
1227.0,3863.0,1941.0,1890.0,13403526.0,
1226.0,3862.0,1937.0,1889.0,13403530.0,
1226.0,3861.0,1938.0,1891.0,13403534.0,
1225.0,3866.0,1940.0,1890.0,13403538.0,
1226.0,3863.0,1938.0,1888.0,13403542.0,
1228.0,3865.0,1940.0,1887.0,13403545.0,
1226.0,3865.0,1940.0,1887.0,13403549.0,
1225.0,3863.0,1939.0,1886.0,13403554.0,
1226.0,3864.0,1941.0,1884.0,13403558.0,
1228.0,3862.0,1940.0,1885.0,13403562.0,
1227.0,3863.0,1941.0,1882.0,13403566.0,
1226.0,3869.0,1942.0,1883.0,13403570.0,
1225.0,3864.0,1941.0,1881.0,13403574.0,
1226.0,3865.0,1941.0,1878.0,13403578.0,
1226.0,3862.0,1941.0,1878.0,13403581.0,
1227.0,3865.0,1943.0,1877.0,13403585.0,
1227.0,3867.0,1942.0,1882.0,13403589.0,
1226.0,3862.0,1943.0,1884.0,13403593.0,
1226.0,3866.0,1943.0,1891.0,13403597.0,
1227.0,3863.0,1948.0,1901.0,13403601.0,
1228.0,3864.0,1947.0,1914.0,13403605.0,
1228.0,3863.0,1945.0,1925.0,13403609.0,
1225.0,3866.0,1948.0,1942.0,13403612.0,
1226.0,3866.0,1947.0,1955.0,13403616.0,
1227.0,3864.0,1946.0,1971.0,13403620.0,
1228.0,3864.0,1942.0,1990.0,13403624.0,
1228.0,3868.0,1942.0,2006.0,13403628.0,
1227.0,3866.0,1943.0,2026.0,13403632.0,
1225.0,3867.0,1942.0,2042.0,13403636.0,
1227.0,3868.0,1942.0,2063.0,13403640.0,
1227.0,3862.0,1943.0,2082.0,13403644.0,
1227.0,3864.0,1945.0,2098.0,13403648.0,
1226.0,3863.0,1947.0,2112.0,13403652.0,
1226.0,3868.0,1947.0,2131.0,13403656.0,
1227.0,3862.0,1951.0,2147.0,13403660.0,
1227.0,3869.0,1954.0,2164.0,13403664.0,
1229.0,3864.0,1956.0,2176.0,13403667.0,
1226.0,3865.0,1957.0,2193.0,13403671.0,
1227.0,3865.0,1961.0,2207.0,13403675.0,
1225.0,3867.0,1963.0,2215.0,13403679.0,
1227.0,3866.0,1963.0,2225.0,13403683.0,
1228.0,3865.0,1965.0,2233.0,13403687.0,
1227.0,3867.0,1964.0,2239.0,13403691.0,
1226.0,3864.0,1964.0,2242.0,13403695.0,
1226.0,3867.0,1963.0,2254.0,13403699.0,
1226.0,3862.0,1963.0,2261.0,13403703.0,
1228.0,3865.0,1964.0,2264.0,13403707.0,
1227.0,3864.0,1965.0,2269.0,13403711.0,
1226.0,3866.0,1971.0,2276.0,13403714.0,
1227.0,3864.0,1971.0,2278.0,13403718.0,
1228.0,3867.0,1974.0,2285.0,13403722.0,
1227.0,3866.0,1979.0,2290.0,13403726.0,
1226.0,3865.0,1985.0,2294.0,13403730.0,
1227.0,3864.0,1994.0,2298.0,13403734.0,
1226.0,3867.0,1996.0,2303.0,13403738.0,
1226.0,3865.0,2000.0,2300.0,13403742.0,
1228.0,3867.0,2006.0,2301.0,13403746.0,
1226.0,3864.0,2008.0,2299.0,13403749.0,
1226.0,3863.0,2012.0,2297.0,13403753.0,
1227.0,3866.0,2012.0,2296.0,13403757.0,
1228.0,3866.0,2014.0,2294.0,13403761.0,
1227.0,3865.0,2015.0,2291.0,13403765.0,
1228.0,3866.0,2020.0,2290.0,13403769.0,
1227.0,3863.0,2020.0,2290.0,13403773.0,
1227.0,3866.0,2022.0,2286.0,13403777.0,
1227.0,3866.0,2023.0,2284.0,13403780.0,
1229.0,3864.0,2027.0,2277.0,13403784.0,
1228.0,3866.0,2030.0,2274.0,13403788.0,
1227.0,3865.0,2032.0,2268.0,13403792.0,
1226.0,3865.0,2036.0,2264.0,13403796.0,
1228.0,3864.0,2036.0,2260.0,13403800.0,
1228.0,3866.0,2042.0,2252.0,13403804.0,
1229.0,3867.0,2044.0,2248.0,13403808.0,
1226.0,3863.0,2046.0,2241.0,13403812.0,
1226.0,3868.0,2049.0,2238.0,13403816.0,
1228.0,3868.0,2052.0,2231.0,13403819.0,
1228.0,3865.0,2054.0,2221.0,13403823.0,
1228.0,3868.0,2053.0,2212.0,13403827.0,
1227.0,3862.0,2052.0,2206.0,13403831.0,
1226.0,3866.0,2053.0,2197.0,13403835.0,
1227.0,3865.0,2050.0,2192.0,13403839.0,
1228.0,3865.0,2047.0,2185.0,13403843.0,
1229.0,3867.0,2043.0,2178.0,13403847.0,
1228.0,3865.0,2045.0,2172.0,13403851.0,
1227.0,3867.0,2042.0,2164.0,13403855.0,
1227.0,3861.0,2043.0,2158.0,13403858.0,
1228.0,3866.0,2048.0,2150.0,13403862.0,
1228.0,3863.0,2044.0,2147.0,13403866.0,
1227.0,3866.0,2044.0,2144.0,13403871.0,
1226.0,3866.0,2042.0,2138.0,13403875.0,
1223.0,3863.0,2040.0,2135.0,13403879.0,
1229.0,3868.0,2037.0,2134.0,13403883.0,
1229.0,3864.0,2036.0,2127.0,13403886.0,
1228.0,3865.0,2031.0,2128.0,13403890.0,
1227.0,3867.0,2030.0,2125.0,13403894.0,
1227.0,3867.0,2029.0,2119.0,13403898.0,
1227.0,3865.0,2025.0,2115.0,13403902.0,
1228.0,3868.0,2022.0,2118.0,13403906.0,
1228.0,3861.0,2020.0,2111.0,13403910.0,
1226.0,3866.0,2017.0,2108.0,13403914.0,
1226.0,3865.0,2014.0,2106.0,13403917.0,
1227.0,3865.0,2013.0,2107.0,13403921.0,
1229.0,3867.0,2015.0,2105.0,13403925.0,
1228.0,3863.0,2011.0,2106.0,13403929.0,
1226.0,3866.0,2010.0,2104.0,13403933.0,
1226.0,3863.0,2007.0,2102.0,13403937.0,
1228.0,3866.0,2008.0,2100.0,13403941.0,
1228.0,3870.0,2006.0,2106.0,13403945.0,
1228.0,3867.0,2005.0,2102.0,13403949.0,
1225.0,3865.0,2003.0,2100.0,13403953.0,
1227.0,3866.0,2001.0,2097.0,13403957.0,
1228.0,3865.0,2002.0,2097.0,13403961.0,
1229.0,3864.0,1998.0,2095.0,13403965.0,
1229.0,3866.0,2004.0,2093.0,13403969.0,
1226.0,3868.0,2003.0,2094.0,13403973.0,
1222.0,3864.0,2003.0,2091.0,13403977.0,
1228.0,3865.0,2004.0,2090.0,13403980.0,
1228.0,3864.0,2005.0,2091.0,13403984.0,
1228.0,3868.0,2002.0,2095.0,13403988.0,
1227.0,3862.0,2005.0,2093.0,13403992.0,
1226.0,3867.0,2007.0,2095.0,13403996.0,
1227.0,3865.0,2008.0,2092.0,13404000.0,
1228.0,3866.0,2008.0,2090.0,13404004.0,
1229.0,3864.0,2009.0,2089.0,13404008.0,
1227.0,3867.0,2008.0,2086.0,13404011.0,
1226.0,3869.0,2008.0,2083.0,13404015.0,
1227.0,3868.0,2007.0,2080.0,13404019.0,
1228.0,3867.0,2006.0,2078.0,13404023.0,
1228.0,3868.0,2006.0,2069.0,13404027.0,
1228.0,3866.0,2006.0,2066.0,13404031.0,
1225.0,3868.0,2006.0,2063.0,13404035.0,
1227.0,3866.0,2005.0,2061.0,13404039.0,
1227.0,3870.0,2001.0,2060.0,13404042.0,
1228.0,3864.0,2002.0,2053.0,13404046.0,
1227.0,3865.0,2000.0,2050.0,13404050.0,
1227.0,3865.0,1997.0,2045.0,13404054.0,
1228.0,3866.0,1997.0,2042.0,13404059.0,
1228.0,3871.0,1991.0,2038.0,13404062.0,
1229.0,3866.0,1991.0,2034.0,13404066.0,
1227.0,3866.0,1993.0,2028.0,13404070.0,
1226.0,3867.0,1991.0,2023.0,13404074.0,
1226.0,3862.0,1990.0,2016.0,13404078.0,
1228.0,3867.0,1989.0,2012.0,13404082.0,
1229.0,3864.0,1989.0,2004.0,13404086.0,
1228.0,3867.0,1990.0,2001.0,13404090.0,
1226.0,3867.0,1992.0,1995.0,13404093.0,
1226.0,3867.0,1992.0,1990.0,13404097.0,
1228.0,3867.0,1993.0,1986.0,13404101.0,
1229.0,3867.0,1996.0,1981.0,13404105.0,
1228.0,3868.0,1993.0,1976.0,13404109.0,
1226.0,3868.0,1994.0,1968.0,13404113.0,
1226.0,3869.0,1994.0,1963.0,13404117.0,
1227.0,3865.0,1991.0,1955.0,13404120.0,
1229.0,3866.0,1990.0,1951.0,13404124.0,
1229.0,3866.0,1988.0,1949.0,13404128.0,
1228.0,3868.0,1983.0,1943.0,13404132.0,
1226.0,3869.0,1979.0,1940.0,13404136.0,
1227.0,3868.0,1977.0,1935.0,13404140.0,
1228.0,3865.0,1974.0,1931.0,13404144.0,
1229.0,3867.0,1972.0,1930.0,13404148.0,
1227.0,3864.0,1973.0,1927.0,13404152.0,
1226.0,3865.0,1975.0,1923.0,13404156.0,
1228.0,3865.0,1975.0,1921.0,13404160.0,
1228.0,3867.0,1974.0,1924.0,13404163.0,
1228.0,3866.0,1975.0,1921.0,13404167.0,
1228.0,3864.0,1974.0,1921.0,13404171.0,
1227.0,3865.0,1972.0,1918.0,13404175.0,
1227.0,3869.0,1971.0,1914.0,13404179.0,
1228.0,3869.0,1972.0,1921.0,13404183.0,
1229.0,3867.0,1970.0,1922.0,13404187.0,
1227.0,3866.0,1969.0,1925.0,13404191.0,
1226.0,3867.0,1970.0,1925.0,13404195.0,
1227.0,3867.0,1971.0,1923.0,13404199.0,
1227.0,3867.0,1970.0,1926.0,13404203.0,
1229.0,3867.0,1970.0,1928.0,13404207.0,
1227.0,3867.0,1971.0,1926.0,13404211.0,
1227.0,3867.0,1971.0,1930.0,13404215.0,
1227.0,3868.0,1972.0,1931.0,13404218.0,
1227.0,3869.0,1971.0,1929.0,13404222.0,
1230.0,3870.0,1972.0,1930.0,13404226.0,
1228.0,3867.0,1970.0,1934.0,13404230.0,
1226.0,3867.0,1971.0,1933.0,13404234.0,
1226.0,3867.0,1973.0,1936.0,13404240.0,
1228.0,3867.0,1971.0,1932.0,13404244.0,
1229.0,3866.0,1969.0,1934.0,13404248.0,
1227.0,3866.0,1972.0,1928.0,13404252.0,
1226.0,3869.0,1971.0,1931.0,13404256.0,
1227.0,3863.0,1970.0,1929.0,13404259.0,
1229.0,3868.0,1973.0,1928.0,13404263.0,
1229.0,3869.0,1968.0,1929.0,13404267.0,
1228.0,3868.0,1967.0,1928.0,13404271.0,
1226.0,3866.0,1968.0,1923.0,13404275.0,
1227.0,3870.0,1963.0,1922.0,13404279.0,
1229.0,3865.0,1962.0,1919.0,13404283.0,
1229.0,3868.0,1962.0,1917.0,13404286.0,
1227.0,3867.0,1961.0,1920.0,13404290.0,
1227.0,3866.0,1955.0,1911.0,13404294.0,
1227.0,3867.0,1955.0,1902.0,13404298.0,
1228.0,3868.0,1952.0,1901.0,13404302.0,
1228.0,3865.0,1951.0,1896.0,13404306.0,
1228.0,3869.0,1948.0,1898.0,13404310.0,
1227.0,3866.0,1946.0,1893.0,13404314.0,
1227.0,3869.0,1946.0,1895.0,13404318.0,
1228.0,3866.0,1946.0,1895.0,13404321.0,
1229.0,3866.0,1947.0,1892.0,13404325.0,
1228.0,3866.0,1946.0,1889.0,13404329.0,
1227.0,3868.0,1948.0,1893.0,13404333.0,
1227.0,3867.0,1947.0,1887.0,13404337.0,
1228.0,3869.0,1945.0,1886.0,13404341.0,
1229.0,3867.0,1944.0,1881.0,13404345.0,
1228.0,3869.0,1945.0,1880.0,13404348.0,
1227.0,3866.0,1947.0,1881.0,13404352.0,
1226.0,3868.0,1950.0,1880.0,13404356.0,
1228.0,3871.0,1951.0,1880.0,13404360.0,
1228.0,3870.0,1953.0,1875.0,13404364.0,
1229.0,3866.0,1954.0,1873.0,13404368.0,
1227.0,3867.0,1956.0,1874.0,13404372.0,
1226.0,3867.0,1957.0,1873.0,13404376.0,
1227.0,3870.0,1960.0,1877.0,13404380.0,
1229.0,3868.0,1961.0,1879.0,13404383.0,
1229.0,3865.0,1964.0,1880.0,13404387.0,
1227.0,3871.0,1963.0,1888.0,13404391.0,
1226.0,3867.0,1966.0,1890.0,13404395.0,
1227.0,3869.0,1965.0,1896.0,13404399.0,
1229.0,3866.0,1966.0,1906.0,13404403.0,
1230.0,3867.0,1968.0,1910.0,13404407.0,
1228.0,3869.0,1968.0,1920.0,13404411.0,
1227.0,3867.0,1968.0,1931.0,13404415.0,
1227.0,3868.0,1969.0,1942.0,13404418.0,
1228.0,3868.0,1969.0,1956.0,13404422.0,
1230.0,3872.0,1973.0,1971.0,13404426.0,
1227.0,3866.0,1975.0,1988.0,13404430.0,
1227.0,3867.0,1977.0,2003.0,13404434.0,
1228.0,3870.0,1973.0,2022.0,13404438.0,
1228.0,3867.0,1972.0,2036.0,13404442.0,
1229.0,3868.0,1975.0,2056.0,13404446.0,
1228.0,3865.0,1975.0,2071.0,13404449.0,
1227.0,3868.0,1974.0,2088.0,13404453.0,
1227.0,3869.0,1973.0,2105.0,13404457.0,
1229.0,3866.0,1973.0,2119.0,13404461.0,
1229.0,3865.0,1976.0,2137.0,13404465.0,
1228.0,3868.0,1975.0,2157.0,13404469.0,
1227.0,3864.0,1977.0,2171.0,13404473.0,
1227.0,3869.0,1979.0,2187.0,13404477.0,
1228.0,3866.0,1980.0,2198.0,13404480.0,
1229.0,3868.0,1984.0,2210.0,13404484.0,
1229.0,3866.0,1986.0,2222.0,13404488.0,
1226.0,3866.0,1990.0,2233.0,13404492.0,
1227.0,3871.0,1994.0,2247.0,13404496.0,
1229.0,3867.0,1997.0,2255.0,13404500.0,
1229.0,3872.0,2000.0,2268.0,13404504.0,
1229.0,3867.0,2006.0,2276.0,13404507.0,
1228.0,3871.0,2014.0,2283.0,13404511.0,
1228.0,3870.0,2020.0,2290.0,13404515.0,
1228.0,3868.0,2026.0,2294.0,13404519.0,
1229.0,3866.0,2033.0,2301.0,13404523.0,
1229.0,3870.0,2035.0,2304.0,13404527.0,
1228.0,3865.0,2042.0,2310.0,13404531.0,
1227.0,3868.0,2046.0,2314.0,13404534.0,
1227.0,3868.0,2054.0,2315.0,13404538.0,
1229.0,3869.0,2055.0,2319.0,13404542.0,
1231.0,3865.0,2064.0,2318.0,13404546.0,
1228.0,3869.0,2068.0,2320.0,13404550.0,
1228.0,3869.0,2071.0,2318.0,13404554.0,
1227.0,3869.0,2075.0,2321.0,13404558.0,
1228.0,3870.0,2078.0,2320.0,13404562.0,
1230.0,3868.0,2079.0,2318.0,13404565.0,
1228.0,3867.0,2084.0,2314.0,13404569.0,
1228.0,3868.0,2084.0,2313.0,13404573.0,
1227.0,3867.0,2087.0,2309.0,13404577.0,
1229.0,3869.0,2088.0,2304.0,13404581.0,
1229.0,3869.0,2090.0,2299.0,13404585.0,
1229.0,3868.0,2092.0,2295.0,13404589.0,
1228.0,3867.0,2094.0,2289.0,13404593.0,
1228.0,3869.0,2096.0,2282.0,13404597.0,
1229.0,3865.0,2096.0,2274.0,13404601.0,
1229.0,3868.0,2095.0,2266.0,13404604.0,
1230.0,3871.0,2090.0,2260.0,13404608.0,
1228.0,3871.0,2091.0,2251.0,13404612.0,
1228.0,3869.0,2090.0,2244.0,13404616.0,
1229.0,3871.0,2089.0,2229.0,13404620.0,
1229.0,3870.0,2087.0,2221.0,13404624.0,
1229.0,3868.0,2086.0,2211.0,13404628.0,
1228.0,3869.0,2086.0,2203.0,13404632.0,
1227.0,3867.0,2089.0,2193.0,13404636.0,
1228.0,3866.0,2084.0,2186.0,13404639.0,
1229.0,3870.0,2086.0,2175.0,13404643.0,
1229.0,3869.0,2084.0,2170.0,13404647.0,
1228.0,3869.0,2084.0,2154.0,13404651.0,
1227.0,3868.0,2082.0,2151.0,13404655.0,
1227.0,3868.0,2085.0,2145.0,13404659.0,
1229.0,3867.0,2086.0,2136.0,13404663.0,
1230.0,3868.0,2087.0,2129.0,13404667.0,
1227.0,3868.0,2083.0,2124.0,13404670.0,
1227.0,3873.0,2082.0,2113.0,13404674.0,
1227.0,3870.0,2080.0,2105.0,13404678.0,
1229.0,3868.0,2081.0,2102.0,13404682.0,
1229.0,3869.0,2075.0,2099.0,13404686.0,
1228.0,3868.0,2072.0,2094.0,13404690.0,
1228.0,3868.0,2072.0,2091.0,13404694.0,
1227.0,3867.0,2069.0,2087.0,13404698.0,
1229.0,3870.0,2066.0,2084.0,13404702.0,
1229.0,3868.0,2061.0,2085.0,13404705.0,
1229.0,3869.0,2059.0,2081.0,13404709.0,
1227.0,3868.0,2053.0,2082.0,13404713.0,
1227.0,3869.0,2052.0,2086.0,13404717.0,
1228.0,3868.0,2047.0,2088.0,13404721.0,
1230.0,3872.0,2046.0,2089.0,13404725.0,
1229.0,3866.0,2045.0,2099.0,13404729.0,
1227.0,3870.0,2043.0,2096.0,13404733.0,
1227.0,3869.0,2039.0,2094.0,13404737.0,
1229.0,3872.0,2041.0,2099.0,13404741.0,
1228.0,3868.0,2039.0,2097.0,13404745.0,
1230.0,3871.0,2040.0,2099.0,13404749.0,
1227.0,3866.0,2038.0,2100.0,13404753.0,
1227.0,3871.0,2037.0,2098.0,13404757.0,
1229.0,3867.0,2038.0,2099.0,13404761.0,
1229.0,3871.0,2039.0,2101.0,13404765.0,
1230.0,3868.0,2040.0,2103.0,13404769.0,
1228.0,3869.0,2040.0,2106.0,13404773.0,
1227.0,3867.0,2039.0,2106.0,13404777.0,
1228.0,3872.0,2039.0,2107.0,13404781.0,
1229.0,3868.0,2036.0,2105.0,13404784.0,
1230.0,3870.0,2034.0,2107.0,13404788.0,
1228.0,3868.0,2034.0,2104.0,13404792.0,
1227.0,3869.0,2036.0,2098.0,13404796.0,
1228.0,3870.0,2035.0,2099.0,13404800.0,
1229.0,3867.0,2032.0,2091.0,13404804.0,
1229.0,3869.0,2035.0,2087.0,13404808.0,
1228.0,3869.0,2036.0,2083.0,13404812.0,
1227.0,3873.0,2035.0,2080.0,13404815.0,
1228.0,3870.0,2035.0,2071.0,13404819.0,
1229.0,3871.0,2036.0,2068.0,13404823.0,
1229.0,3866.0,2037.0,2060.0,13404827.0,
1228.0,3867.0,2044.0,2060.0,13404831.0,
1228.0,3871.0,2046.0,2055.0,13404835.0,
1228.0,3868.0,2046.0,2052.0,13404839.0,
1229.0,3872.0,2046.0,2049.0,13404843.0,
1230.0,3869.0,2050.0,2043.0,13404847.0,
1229.0,3871.0,2050.0,2041.0,13404850.0,
1227.0,3871.0,2048.0,2036.0,13404854.0,
1228.0,3868.0,2048.0,2032.0,13404858.0,
1229.0,3868.0,2048.0,2031.0,13404862.0,
1230.0,3869.0,2050.0,2026.0,13404866.0,
1229.0,3870.0,2052.0,2023.0,13404870.0,
1227.0,3871.0,2055.0,2021.0,13404874.0,
1227.0,3868.0,2055.0,2017.0,13404877.0,
1229.0,3870.0,2055.0,2014.0,13404881.0,
1229.0,3869.0,2050.0,2008.0,13404885.0,
1229.0,3868.0,2051.0,2005.0,13404889.0,
1226.0,3869.0,2047.0,2001.0,13404893.0,
1227.0,3873.0,2041.0,1996.0,13404897.0,
1228.0,3871.0,2041.0,1993.0,13404901.0,
1229.0,3867.0,2037.0,1982.0,13404905.0,
1229.0,3867.0,2034.0,1978.0,13404909.0,
1228.0,3871.0,2034.0,1971.0,13404913.0,
1228.0,3867.0,2030.0,1963.0,13404917.0,
1228.0,3869.0,2026.0,1960.0,13404921.0,
1229.0,3867.0,2023.0,1954.0,13404925.0,
1229.0,3871.0,2022.0,1944.0,13404929.0,
1228.0,3869.0,2017.0,1941.0,13404933.0,
1227.0,3868.0,2018.0,1932.0,13404936.0,
1227.0,3872.0,2017.0,1931.0,13404940.0,
1229.0,3870.0,2020.0,1926.0,13404944.0,
1230.0,3867.0,2018.0,1923.0,13404948.0,
1228.0,3869.0,2018.0,1924.0,13404952.0,
1228.0,3871.0,2017.0,1922.0,13404956.0,
1228.0,3870.0,2019.0,1920.0,13404960.0,
1229.0,3868.0,2020.0,1919.0,13404964.0,
1229.0,3869.0,2021.0,1919.0,13404968.0,
1228.0,3869.0,2023.0,1915.0,13404972.0,
1227.0,3871.0,2022.0,1913.0,13404975.0,
1228.0,3871.0,2024.0,1914.0,13404979.0,
1229.0,3869.0,2024.0,1912.0,13404983.0,
1229.0,3869.0,2025.0,1910.0,13404987.0,
1229.0,3869.0,2025.0,1912.0,13404991.0,
1227.0,3867.0,2027.0,1907.0,13404995.0,
1228.0,3871.0,2026.0,1910.0,13404998.0,
1228.0,3870.0,2024.0,1908.0,13405002.0,
1229.0,3868.0,2025.0,1906.0,13405006.0,
1228.0,3869.0,2022.0,1905.0,13405010.0,
1229.0,3869.0,2020.0,1906.0,13405014.0,
1227.0,3868.0,2021.0,1902.0,13405018.0,
1228.0,3870.0,2023.0,1902.0,13405022.0,
1230.0,3867.0,2021.0,1901.0,13405026.0,
1229.0,3870.0,2022.0,1903.0,13405030.0,
1227.0,3869.0,2023.0,1898.0,13405033.0,
1227.0,3867.0,2023.0,1899.0,13405037.0,
1228.0,3870.0,2022.0,1897.0,13405041.0,
1229.0,3871.0,2021.0,1891.0,13405045.0,
1229.0,3867.0,2016.0,1890.0,13405049.0,
1227.0,3870.0,2011.0,1887.0,13405053.0,
1228.0,3869.0,2007.0,1885.0,13405057.0,
1228.0,3868.0,2005.0,1880.0,13405061.0,
1229.0,3872.0,2000.0,1873.0,13405065.0,
1229.0,3868.0,1999.0,1871.0,13405069.0,
1228.0,3866.0,1997.0,1871.0,13405073.0,
1227.0,3869.0,1994.0,1867.0,13405077.0,
1229.0,3868.0,1993.0,1868.0,13405081.0,
1228.0,3873.0,1993.0,1870.0,13405085.0,
1228.0,3868.0,1996.0,1870.0,13405089.0,
1228.0,3868.0,1997.0,1875.0,13405093.0,
1227.0,3868.0,1997.0,1874.0,13405097.0,
1228.0,3868.0,1998.0,1875.0,13405101.0,
1227.0,3871.0,2000.0,1880.0,13405105.0,
1228.0,3866.0,2002.0,1879.0,13405109.0,
1227.0,3869.0,2000.0,1883.0,13405113.0,
1227.0,3868.0,2000.0,1881.0,13405117.0,
1228.0,3871.0,2001.0,1878.0,13405120.0,
1229.0,3869.0,2000.0,1879.0,13405124.0,
1228.0,3864.0,2002.0,1878.0,13405128.0,
1228.0,3868.0,2003.0,1882.0,13405132.0,
1227.0,3868.0,2003.0,1879.0,13405136.0,
1227.0,3866.0,2005.0,1876.0,13405140.0,
1229.0,3870.0,2006.0,1877.0,13405144.0,
1229.0,3868.0,2006.0,1877.0,13405148.0,
1227.0,3871.0,2004.0,1880.0,13405152.0,
1226.0,3867.0,2004.0,1878.0,13405155.0,
1227.0,3867.0,2001.0,1878.0,13405159.0,
1229.0,3868.0,2000.0,1881.0,13405163.0,
1229.0,3869.0,2000.0,1884.0,13405167.0,
1228.0,3868.0,2004.0,1891.0,13405171.0,
1227.0,3869.0,2004.0,1890.0,13405175.0,
1227.0,3868.0,2006.0,1898.0,13405179.0,
1229.0,3867.0,2006.0,1901.0,13405183.0,
1229.0,3869.0,2006.0,1911.0,13405187.0,
1228.0,3865.0,2007.0,1921.0,13405191.0,
1227.0,3870.0,2009.0,1932.0,13405195.0,
1227.0,3867.0,2011.0,1942.0,13405199.0,
1228.0,3869.0,2011.0,1956.0,13405203.0,
1229.0,3866.0,2015.0,1970.0,13405207.0,
1227.0,3869.0,2015.0,1988.0,13405211.0,
1227.0,3867.0,2016.0,2003.0,13405215.0,
1227.0,3870.0,2020.0,2023.0,13405219.0,
1229.0,3869.0,2026.0,2037.0,13405223.0,
1229.0,3871.0,2026.0,2059.0,13405227.0,
1228.0,3866.0,2026.0,2077.0,13405230.0,
1227.0,3867.0,2029.0,2100.0,13405235.0,
1227.0,3870.0,2027.0,2121.0,13405238.0,
1228.0,3869.0,2030.0,2143.0,13405243.0,
1229.0,3866.0,2029.0,2163.0,13405247.0,
1227.0,3871.0,2031.0,2192.0,13405253.0,
1227.0,3867.0,2033.0,2208.0,13405257.0,
1228.0,3869.0,2031.0,2227.0,13405261.0,
1228.0,3867.0,2033.0,2238.0,13405265.0,
1229.0,3867.0,2030.0,2256.0,13405269.0,
1228.0,3867.0,2030.0,2267.0,13405273.0,
1227.0,3869.0,2035.0,2280.0,13405276.0,
1227.0,3869.0,2037.0,2296.0,13405280.0,
1228.0,3869.0,2037.0,2308.0,13405284.0,
1228.0,3869.0,2042.0,2318.0,13405288.0,
1228.0,3866.0,2046.0,2327.0,13405293.0,
1227.0,3867.0,2048.0,2333.0,13405298.0,
1229.0,3867.0,2053.0,2342.0,13405302.0,
1229.0,3865.0,2060.0,2348.0,13405305.0,
1229.0,3868.0,2064.0,2352.0,13405309.0,
1227.0,3869.0,2070.0,2357.0,13405313.0,
1227.0,3866.0,2078.0,2359.0,13405317.0,
1228.0,3869.0,2087.0,2361.0,13405321.0,
1229.0,3869.0,2096.0,2362.0,13405325.0,
1229.0,3868.0,2102.0,2361.0,13405329.0,
1228.0,3868.0,2113.0,2363.0,13405333.0,
1227.0,3868.0,2119.0,2361.0,13405336.0,
1228.0,3870.0,2127.0,2363.0,13405340.0,
1229.0,3866.0,2132.0,2355.0,13405344.0,
1229.0,3867.0,2139.0,2351.0,13405348.0,
1229.0,3867.0,2144.0,2349.0,13405352.0,
1228.0,3871.0,2144.0,2341.0,13405356.0,
1228.0,3870.0,2148.0,2332.0,13405360.0,
1229.0,3869.0,2152.0,2330.0,13405363.0,
1230.0,3869.0,2150.0,2324.0,13405367.0,
1228.0,3866.0,2149.0,2318.0,13405371.0,
1227.0,3869.0,2150.0,2314.0,13405375.0,
1228.0,3868.0,2149.0,2309.0,13405379.0,
1228.0,3867.0,2149.0,2301.0,13405383.0,
1229.0,3866.0,2147.0,2296.0,13405387.0,
1229.0,3866.0,2150.0,2297.0,13405391.0,
1227.0,3868.0,2145.0,2297.0,13405395.0,
1228.0,3866.0,2148.0,2283.0,13405399.0,
1229.0,3866.0,2149.0,2280.0,13405403.0,
1230.0,3867.0,2149.0,2271.0,13405406.0,
1229.0,3867.0,2152.0,2266.0,13405410.0,
1227.0,3869.0,2152.0,2262.0,13405414.0,
1228.0,3869.0,2150.0,2256.0,13405418.0,
1229.0,3869.0,2151.0,2248.0,13405422.0,
1230.0,3868.0,2147.0,2244.0,13405426.0,
1229.0,3866.0,2149.0,2240.0,13405430.0,
1227.0,3870.0,2147.0,2232.0,13405434.0,
1227.0,3870.0,2147.0,2225.0,13405438.0,
1228.0,3869.0,2150.0,2221.0,13405442.0,
1230.0,3869.0,2155.0,2215.0,13405446.0,
1229.0,3868.0,2154.0,2212.0,13405449.0,
1227.0,3867.0,2158.0,2203.0,13405453.0,
1228.0,3865.0,2157.0,2196.0,13405457.0,
1229.0,3865.0,2156.0,2195.0,13405461.0,
1229.0,3869.0,2154.0,2192.0,13405465.0,
1229.0,3866.0,2153.0,2190.0,13405469.0,
1227.0,3866.0,2155.0,2188.0,13405473.0,
1227.0,3864.0,2152.0,2186.0,13405477.0,
1228.0,3867.0,2152.0,2184.0,13405481.0,
1230.0,3868.0,2148.0,2185.0,13405484.0,
1229.0,3864.0,2148.0,2181.0,13405489.0,
1227.0,3864.0,2147.0,2182.0,13405493.0,
1227.0,3867.0,2142.0,2179.0,13405497.0,
1229.0,3866.0,2140.0,2178.0,13405501.0,
1230.0,3866.0,2135.0,2178.0,13405504.0,
1229.0,3866.0,2135.0,2173.0,13405508.0,
1228.0,3867.0,2131.0,2177.0,13405512.0,
1228.0,3864.0,2129.0,2168.0,13405516.0,
1227.0,3866.0,2129.0,2166.0,13405520.0,
1230.0,3868.0,2131.0,2162.0,13405524.0,
1230.0,3864.0,2133.0,2156.0,13405528.0,
1228.0,3866.0,2134.0,2157.0,13405532.0,
1227.0,3865.0,2135.0,2151.0,13405535.0,
1228.0,3868.0,2135.0,2149.0,13405539.0,
1229.0,3868.0,2133.0,2147.0,13405543.0,
1228.0,3868.0,2133.0,2142.0,13405547.0,
1228.0,3865.0,2132.0,2138.0,13405551.0,
1227.0,3867.0,2131.0,2134.0,13405555.0,
1228.0,3865.0,2129.0,2128.0,13405559.0,
1230.0,3864.0,2130.0,2128.0,13405563.0,
1230.0,3866.0,2128.0,2127.0,13405567.0,
1228.0,3865.0,2127.0,2120.0,13405571.0,
1227.0,3864.0,2127.0,2116.0,13405575.0,
1227.0,3865.0,2128.0,2115.0,13405578.0,
1228.0,3866.0,2129.0,2109.0,13405582.0,
1229.0,3864.0,2127.0,2103.0,13405586.0,
1229.0,3870.0,2124.0,2099.0,13405590.0,
1227.0,3869.0,2123.0,2091.0,13405594.0,
1226.0,3867.0,2119.0,2085.0,13405598.0,
1229.0,3868.0,2119.0,2082.0,13405602.0,
1229.0,3866.0,2115.0,2079.0,13405605.0,
1229.0,3867.0,2115.0,2073.0,13405609.0,
1228.0,3865.0,2116.0,2075.0,13405613.0,
1227.0,3866.0,2112.0,2070.0,13405617.0,
1228.0,3866.0,2113.0,2065.0,13405621.0,
1229.0,3866.0,2110.0,2063.0,13405625.0,
1230.0,3867.0,2107.0,2060.0,13405629.0,
1227.0,3866.0,2109.0,2054.0,13405632.0,
1228.0,3868.0,2105.0,2052.0,13405636.0,
1228.0,3867.0,2109.0,2046.0,13405640.0,
1229.0,3867.0,2107.0,2043.0,13405644.0,
1229.0,3867.0,2105.0,2037.0,13405648.0,
1228.0,3866.0,2103.0,2034.0,13405652.0,
1227.0,3863.0,2100.0,2026.0,13405656.0,
1227.0,3868.0,2098.0,2020.0,13405660.0,
1227.0,3865.0,2094.0,2014.0,13405664.0,
1230.0,3863.0,2092.0,2007.0,13405668.0,
1227.0,3868.0,2090.0,2005.0,13405672.0,
1226.0,3865.0,2091.0,1998.0,13405676.0,
1227.0,3868.0,2090.0,1993.0,13405680.0,
1228.0,3867.0,2089.0,1990.0,13405683.0,
1229.0,3866.0,2089.0,1983.0,13405687.0,
1228.0,3864.0,2089.0,1981.0,13405691.0,
1227.0,3869.0,2088.0,1976.0,13405695.0,
1227.0,3865.0,2088.0,1968.0,13405699.0,
1229.0,3868.0,2088.0,1969.0,13405703.0,
1229.0,3868.0,2084.0,1963.0,13405707.0,
1227.0,3867.0,2091.0,1960.0,13405710.0,
1226.0,3864.0,2090.0,1955.0,13405714.0,
1227.0,3869.0,2088.0,1953.0,13405718.0,
1229.0,3866.0,2089.0,1947.0,13405722.0,
1227.0,3865.0,2088.0,1943.0,13405726.0,
1228.0,3865.0,2087.0,1944.0,13405730.0,
1227.0,3866.0,2086.0,1941.0,13405734.0,
1227.0,3868.0,2088.0,1940.0,13405738.0,
1228.0,3865.0,2087.0,1934.0,13405741.0,
1229.0,3867.0,2087.0,1933.0,13405745.0,
1228.0,3868.0,2091.0,1934.0,13405749.0,
1227.0,3868.0,2087.0,1932.0,13405753.0,
1227.0,3866.0,2084.0,1928.0,13405757.0,
1228.0,3866.0,2082.0,1927.0,13405761.0,
1229.0,3865.0,2081.0,1925.0,13405765.0,
1229.0,3865.0,2081.0,1922.0,13405769.0,
1228.0,3865.0,2079.0,1925.0,13405772.0,
1226.0,3867.0,2075.0,1922.0,13405776.0,
1228.0,3868.0,2076.0,1922.0,13405780.0,
1229.0,3866.0,2068.0,1927.0,13405784.0,
1229.0,3865.0,2067.0,1924.0,13405789.0,
1226.0,3867.0,2064.0,1926.0,13405792.0,
1227.0,3866.0,2060.0,1925.0,13405796.0,
1227.0,3867.0,2057.0,1925.0,13405800.0,
1228.0,3870.0,2058.0,1920.0,13405804.0,
1228.0,3868.0,2055.0,1922.0,13405808.0,
1227.0,3866.0,2051.0,1917.0,13405812.0,
1227.0,3867.0,2048.0,1911.0,13405816.0,
1228.0,3868.0,2044.0,1909.0,13405820.0,
1229.0,3865.0,2044.0,1907.0,13405824.0,
1229.0,3867.0,2042.0,1906.0,13405828.0,
1227.0,3866.0,2045.0,1900.0,13405832.0,
1226.0,3866.0,2045.0,1899.0,13405836.0,
1226.0,3866.0,2044.0,1895.0,13405840.0,
1229.0,3865.0,2043.0,1895.0,13405843.0,
1229.0,3867.0,2047.0,1894.0,13405847.0,
1227.0,3864.0,2045.0,1890.0,13405851.0,
1227.0,3865.0,2048.0,1891.0,13405855.0,
1228.0,3867.0,2050.0,1889.0,13405859.0,
1228.0,3874.0,2048.0,1892.0,13405863.0,
1229.0,3866.0,2050.0,1890.0,13405867.0,
1227.0,3865.0,2049.0,1895.0,13405871.0,
1226.0,3863.0,2047.0,1895.0,13405875.0,
1226.0,3866.0,2043.0,1896.0,13405879.0,
1229.0,3866.0,2041.0,1899.0,13405883.0,
1229.0,3866.0,2043.0,1899.0,13405887.0,
1227.0,3865.0,2039.0,1900.0,13405891.0,
1226.0,3866.0,2038.0,1899.0,13405895.0,
1227.0,3870.0,2036.0,1900.0,13405899.0,
1229.0,3866.0,2033.0,1894.0,13405903.0,
1228.0,3867.0,2033.0,1894.0,13405907.0,
1228.0,3867.0,2029.0,1890.0,13405911.0,
1228.0,3868.0,2025.0,1894.0,13405914.0,
1227.0,3869.0,2022.0,1886.0,13405918.0,
1227.0,3867.0,2023.0,1881.0,13405923.0,
1229.0,3868.0,2022.0,1879.0,13405927.0,
1228.0,3865.0,2020.0,1875.0,13405931.0,
1226.0,3868.0,2019.0,1876.0,13405935.0,
1227.0,3867.0,2017.0,1876.0,13405939.0,
1227.0,3869.0,2015.0,1877.0,13405943.0,
1228.0,3863.0,2008.0,1878.0,13405947.0,
1228.0,3868.0,2006.0,1881.0,13405950.0,
1226.0,3866.0,2004.0,1882.0,13405954.0,
1226.0,3868.0,2002.0,1885.0,13405958.0,
1228.0,3866.0,1998.0,1889.0,13405962.0,
1229.0,3867.0,1996.0,1894.0,13405966.0,
1229.0,3864.0,1993.0,1900.0,13405970.0,
1226.0,3871.0,1990.0,1905.0,13405974.0,
1226.0,3866.0,1991.0,1912.0,13405977.0,
1228.0,3866.0,1990.0,1925.0,13405981.0,
1229.0,3867.0,1988.0,1934.0,13405985.0,
1229.0,3864.0,1987.0,1944.0,13405989.0,
1227.0,3867.0,1982.0,1961.0,13405993.0,
1227.0,3865.0,1984.0,1974.0,13405997.0,
1228.0,3868.0,1983.0,1989.0,13406001.0,
1229.0,3866.0,1985.0,2006.0,13406005.0,
1228.0,3866.0,1982.0,2022.0,13406008.0,
1226.0,3867.0,1991.0,2037.0,13406012.0,
1227.0,3865.0,1992.0,2056.0,13406016.0,
1227.0,3868.0,1998.0,2074.0,13406020.0,
1228.0,3865.0,2003.0,2094.0,13406024.0,
1228.0,3867.0,2007.0,2114.0,13406028.0,
1228.0,3864.0,2012.0,2129.0,13406032.0,
1227.0,3867.0,2017.0,2146.0,13406035.0,
1228.0,3866.0,2023.0,2163.0,13406039.0,
1229.0,3867.0,2025.0,2182.0,13406043.0,
1229.0,3866.0,2035.0,2200.0,13406047.0,
1228.0,3864.0,2041.0,2215.0,13406051.0,
1226.0,3867.0,2045.0,2233.0,13406055.0,
1228.0,3867.0,2047.0,2247.0,13406059.0,
1228.0,3865.0,2048.0,2263.0,13406063.0,
1229.0,3867.0,2053.0,2274.0,13406067.0,
1228.0,3862.0,2052.0,2283.0,13406071.0,
1227.0,3864.0,2060.0,2292.0,13406075.0,
1228.0,3866.0,2064.0,2301.0,13406079.0,
1228.0,3866.0,2070.0,2308.0,13406083.0,
1231.0,3865.0,2072.0,2318.0,13406087.0,
1228.0,3864.0,2080.0,2327.0,13406090.0,
1227.0,3867.0,2082.0,2334.0,13406094.0,
1227.0,3866.0,2091.0,2339.0,13406098.0,
1228.0,3867.0,2092.0,2347.0,13406102.0,
1229.0,3863.0,2102.0,2350.0,13406106.0,
1228.0,3864.0,2108.0,2353.0,13406110.0,
1227.0,3863.0,2117.0,2358.0,13406114.0,
1227.0,3867.0,2123.0,2361.0,13406118.0,
1228.0,3866.0,2133.0,2367.0,13406121.0,
1229.0,3868.0,2138.0,2371.0,13406125.0,
1228.0,3866.0,2145.0,2373.0,13406129.0,
1226.0,3865.0,2155.0,2374.0,13406133.0,
1227.0,3863.0,2162.0,2374.0,13406137.0,
1228.0,3864.0,2171.0,2375.0,13406141.0,
1229.0,3867.0,2179.0,2371.0,13406145.0,
1229.0,3865.0,2188.0,2370.0,13406149.0,
1228.0,3863.0,2193.0,2371.0,13406153.0,
1227.0,3864.0,2203.0,2373.0,13406157.0,
1228.0,3866.0,2213.0,2368.0,13406160.0,
1229.0,3868.0,2219.0,2373.0,13406164.0,
1229.0,3864.0,2228.0,2369.0,13406168.0,
1228.0,3865.0,2231.0,2368.0,13406172.0,
1226.0,3866.0,2241.0,2366.0,13406176.0,
1227.0,3869.0,2245.0,2360.0,13406180.0,
1229.0,3868.0,2248.0,2360.0,13406184.0,
1230.0,3867.0,2252.0,2354.0,13406188.0,
1228.0,3867.0,2258.0,2350.0,13406192.0,
1226.0,3869.0,2258.0,2342.0,13406195.0,
1228.0,3863.0,2265.0,2330.0,13406199.0,
1229.0,3865.0,2263.0,2321.0,13406203.0,
1230.0,3864.0,2264.0,2310.0,13406207.0,
1229.0,3864.0,2262.0,2301.0,13406211.0,
1226.0,3865.0,2264.0,2285.0,13406215.0,
1229.0,3865.0,2263.0,2274.0,13406219.0,
1228.0,3866.0,2260.0,2263.0,13406223.0,
1230.0,3864.0,2256.0,2254.0,13406227.0,
1227.0,3865.0,2257.0,2244.0,13406231.0,
1229.0,3864.0,2253.0,2234.0,13406234.0,
1227.0,3867.0,2250.0,2230.0,13406239.0,
1228.0,3868.0,2245.0,2217.0,13406242.0,
1229.0,3866.0,2243.0,2207.0,13406246.0,
1229.0,3865.0,2242.0,2203.0,13406250.0,
1227.0,3866.0,2238.0,2198.0,13406254.0,
1227.0,3864.0,2235.0,2192.0,13406258.0,
1229.0,3868.0,2232.0,2185.0,13406265.0,
1229.0,3867.0,2231.0,2180.0,13406270.0,
1227.0,3867.0,2228.0,2181.0,13406274.0,
1228.0,3867.0,2225.0,2177.0,13406278.0,
1229.0,3867.0,2222.0,2177.0,13406281.0,
1230.0,3863.0,2222.0,2172.0,13406285.0,
1230.0,3866.0,2214.0,2173.0,13406289.0,
1228.0,3865.0,2211.0,2170.0,13406293.0,
1229.0,3864.0,2206.0,2167.0,13406297.0,
1228.0,3865.0,2201.0,2160.0,13406301.0,
1228.0,3864.0,2199.0,2162.0,13406305.0,
1229.0,3862.0,2196.0,2159.0,13406309.0,
1227.0,3864.0,2193.0,2157.0,13406312.0,
1227.0,3868.0,2189.0,2152.0,13406316.0,
1227.0,3866.0,2184.0,2147.0,13406320.0,
1229.0,3863.0,2182.0,2148.0,13406324.0,
1229.0,3865.0,2178.0,2143.0,13406328.0,
1228.0,3867.0,2176.0,2143.0,13406332.0,
1230.0,3866.0,2176.0,2138.0,13406336.0,
1228.0,3865.0,2170.0,2139.0,13406340.0,
1230.0,3866.0,2165.0,2133.0,13406344.0,
1229.0,3861.0,2162.0,2132.0,13406348.0,
1229.0,3866.0,2157.0,2128.0,13406351.0,
1227.0,3862.0,2154.0,2123.0,13406355.0,
1227.0,3862.0,2151.0,2119.0,13406359.0,
1229.0,3868.0,2150.0,2122.0,13406363.0,
1230.0,3863.0,2148.0,2115.0,13406367.0,
1228.0,3868.0,2144.0,2112.0,13406371.0,
1228.0,3867.0,2138.0,2110.0,13406375.0,
1226.0,3866.0,2136.0,2105.0,13406379.0,
1228.0,3866.0,2132.0,2103.0,13406383.0,
1229.0,3866.0,2129.0,2099.0,13406387.0,
1229.0,3865.0,2132.0,2094.0,13406390.0,
1227.0,3863.0,2128.0,2086.0,13406394.0,
1227.0,3867.0,2129.0,2081.0,13406398.0,
1228.0,3865.0,2129.0,2071.0,13406402.0,
1229.0,3863.0,2130.0,2065.0,13406406.0,
1229.0,3867.0,2129.0,2061.0,13406410.0,
1227.0,3864.0,2131.0,2054.0,13406414.0,
1226.0,3867.0,2132.0,2048.0,13406418.0,
1227.0,3868.0,2132.0,2042.0,13406421.0,
1229.0,3867.0,2135.0,2033.0,13406425.0,
1228.0,3866.0,2134.0,2028.0,13406429.0,
1227.0,3867.0,2138.0,2023.0,13406433.0,
1227.0,3867.0,2136.0,2019.0,13406437.0,
1227.0,3863.0,2137.0,2015.0,13406441.0,
1229.0,3864.0,2134.0,2007.0,13406445.0,
1229.0,3866.0,2126.0,2002.0,13406449.0,
1227.0,3863.0,2123.0,1997.0,13406453.0,
1227.0,3866.0,2119.0,1993.0,13406457.0,
1228.0,3865.0,2118.0,1988.0,13406461.0,
1229.0,3866.0,2113.0,1983.0,13406465.0,
1230.0,3863.0,2111.0,1977.0,13406469.0,
1227.0,3866.0,2107.0,1973.0,13406473.0,
1226.0,3864.0,2107.0,1971.0,13406477.0,
1227.0,3864.0,2105.0,1968.0,13406481.0,
1229.0,3862.0,2104.0,1964.0,13406485.0,
1229.0,3865.0,2103.0,1963.0,13406489.0,
1227.0,3864.0,2100.0,1959.0,13406493.0,
1226.0,3868.0,2099.0,1958.0,13406497.0,
1228.0,3865.0,2100.0,1954.0,13406501.0,
1228.0,3869.0,2099.0,1954.0,13406505.0,
1229.0,3909.0,2100.0,1950.0,13406508.0,
1229.0,3860.0,2106.0,1948.0,13406512.0,
1231.0,3864.0,2111.0,1947.0,13406516.0,
1227.0,3867.0,2117.0,1944.0,13406520.0,
1229.0,3868.0,2119.0,1940.0,13406524.0,
1229.0,3866.0,2121.0,1938.0,13406528.0,
1228.0,3862.0,2127.0,1931.0,13406532.0,
1227.0,3863.0,2127.0,1926.0,13406536.0,
1227.0,3863.0,2129.0,1922.0,13406540.0,
1228.0,3868.0,2130.0,1922.0,13406543.0,
1228.0,3865.0,2129.0,1916.0,13406547.0,
1228.0,3867.0,2129.0,1906.0,13406551.0,
1225.0,3867.0,2129.0,1905.0,13406555.0,
1227.0,3861.0,2129.0,1899.0,13406559.0,
1228.0,3865.0,2128.0,1899.0,13406563.0,
1228.0,3866.0,2128.0,1895.0,13406567.0,
1228.0,3864.0,2123.0,1889.0,13406571.0,
1225.0,3867.0,2119.0,1886.0,13406575.0,
1227.0,3865.0,2116.0,1884.0,13406579.0,
1228.0,3867.0,2110.0,1885.0,13406582.0,
1229.0,3868.0,2107.0,1880.0,13406586.0,
1229.0,3866.0,2104.0,1878.0,13406590.0,
1227.0,3867.0,2103.0,1873.0,13406594.0,
1227.0,3864.0,2098.0,1871.0,13406598.0,
1227.0,3867.0,2096.0,1873.0,13406602.0,
1229.0,3864.0,2096.0,1875.0,13406606.0,
1228.0,3866.0,2095.0,1875.0,13406609.0,
1227.0,3864.0,2097.0,1878.0,13406613.0,
1226.0,3866.0,2098.0,1880.0,13406617.0,
1228.0,3865.0,2100.0,1882.0,13406621.0,
1229.0,3867.0,2099.0,1882.0,13406626.0,
1229.0,3863.0,2100.0,1884.0,13406629.0,
1227.0,3864.0,2100.0,1885.0,13406633.0,
1227.0,3863.0,2102.0,1883.0,13406637.0,
1227.0,3864.0,2098.0,1886.0,13406641.0,
1228.0,3867.0,2097.0,1889.0,13406645.0,
1229.0,3862.0,2097.0,1889.0,13406649.0,
1227.0,3865.0,2089.0,1893.0,13406653.0,
1226.0,3865.0,2083.0,1887.0,13406657.0,
1227.0,3867.0,2079.0,1887.0,13406660.0,
1229.0,3864.0,2078.0,1885.0,13406664.0,
1227.0,3866.0,2074.0,1888.0,13406668.0,
1228.0,3867.0,2072.0,1884.0,13406672.0,
1226.0,3863.0,2069.0,1880.0,13406676.0,
1227.0,3868.0,2063.0,1881.0,13406680.0,
1228.0,3866.0,2062.0,1884.0,13406684.0,
1229.0,3865.0,2062.0,1878.0,13406688.0,
1228.0,3865.0,2062.0,1873.0,13406692.0,
1226.0,3868.0,2060.0,1871.0,13406695.0,
1227.0,3865.0,2058.0,1863.0,13406699.0,
1227.0,3862.0,2056.0,1864.0,13406703.0,
1228.0,3867.0,2051.0,1859.0,13406707.0,
1229.0,3862.0,2045.0,1854.0,13406711.0,
1226.0,3866.0,2041.0,1854.0,13406715.0,
1228.0,3863.0,2036.0,1851.0,13406719.0,
1228.0,3865.0,2031.0,1845.0,13406723.0,
1228.0,3862.0,2029.0,1840.0,13406727.0,
1227.0,3864.0,2027.0,1839.0,13406731.0,
1227.0,3864.0,2026.0,1833.0,13406735.0,
1227.0,3866.0,2025.0,1834.0,13406739.0,
1228.0,3863.0,2022.0,1830.0,13406743.0,
1229.0,3863.0,2017.0,1829.0,13406747.0,
1228.0,3863.0,2021.0,1827.0,13406750.0,
1227.0,3862.0,2018.0,1824.0,13406754.0,
1227.0,3865.0,2018.0,1832.0,13406758.0,
1228.0,3867.0,2019.0,1829.0,13406762.0,
1228.0,3864.0,2020.0,1825.0,13406766.0,
1229.0,3865.0,2022.0,1833.0,13406770.0,
1227.0,3863.0,2022.0,1833.0,13406774.0,
1227.0,3866.0,2024.0,1833.0,13406778.0,
1227.0,3862.0,2025.0,1840.0,13406782.0,
1228.0,3865.0,2026.0,1847.0,13406785.0,
1228.0,3864.0,2030.0,1847.0,13406789.0,
1226.0,3863.0,2031.0,1855.0,13406793.0,
1227.0,3862.0,2036.0,1859.0,13406797.0,
1227.0,3866.0,2042.0,1870.0,13406801.0,
1228.0,3865.0,2043.0,1883.0,13406805.0,
1228.0,3863.0,2043.0,1887.0,13406809.0,
1227.0,3865.0,2046.0,1902.0,13406813.0,
1226.0,3866.0,2043.0,1915.0,13406817.0,
1226.0,3864.0,2043.0,1928.0,13406821.0,
1228.0,3868.0,2044.0,1946.0,13406825.0,
1228.0,3864.0,2045.0,1962.0,13406829.0,
1227.0,3864.0,2046.0,1982.0,13406833.0,
1226.0,3864.0,2045.0,1999.0,13406837.0,
1226.0,3865.0,2046.0,2018.0,13406841.0,
1228.0,3867.0,2046.0,2040.0,13406844.0,
1228.0,3863.0,2047.0,2056.0,13406848.0,
1227.0,3865.0,2045.0,2076.0,13406852.0,
1227.0,3864.0,2043.0,2096.0,13406856.0,
1227.0,3865.0,2044.0,2116.0,13406860.0,
1228.0,3866.0,2045.0,2137.0,13406864.0,
1228.0,3866.0,2047.0,2155.0,13406868.0,
1228.0,3863.0,2047.0,2171.0,13406872.0,
1227.0,3866.0,2048.0,2190.0,13406876.0,
1226.0,3866.0,2054.0,2208.0,13406879.0,
1229.0,3865.0,2056.0,2223.0,13406883.0,
1229.0,3863.0,2060.0,2238.0,13406887.0,
1228.0,3865.0,2066.0,2257.0,13406891.0,
1227.0,3865.0,2068.0,2270.0,13406895.0,
1227.0,3864.0,2075.0,2283.0,13406899.0,
1227.0,3867.0,2085.0,2297.0,13406903.0,
1229.0,3867.0,2092.0,2309.0,13406907.0,
1229.0,3865.0,2094.0,2321.0,13406910.0,
1226.0,3862.0,2106.0,2327.0,13406914.0,
1228.0,3864.0,2118.0,2335.0,13406918.0,
1229.0,3862.0,2128.0,2339.0,13406922.0,
1229.0,3863.0,2139.0,2345.0,13406926.0,
1228.0,3863.0,2152.0,2350.0,13406930.0,
1227.0,3863.0,2162.0,2357.0,13406934.0,
1227.0,3863.0,2171.0,2360.0,13406938.0,
1228.0,3865.0,2187.0,2363.0,13406942.0,
1229.0,3863.0,2196.0,2368.0,13406945.0,
1229.0,3865.0,2209.0,2371.0,13406949.0,
1227.0,3865.0,2216.0,2372.0,13406953.0,
1227.0,3863.0,2227.0,2373.0,13406957.0,
1228.0,3865.0,2235.0,2373.0,13406961.0,
1229.0,3869.0,2243.0,2371.0,13406965.0,
1229.0,3866.0,2249.0,2374.0,13406969.0,
1228.0,3864.0,2255.0,2372.0,13406973.0,
1227.0,3865.0,2265.0,2369.0,13406976.0,
1228.0,3864.0,2273.0,2367.0,13406980.0,
1230.0,3862.0,2276.0,2362.0,13406984.0,
1229.0,3864.0,2279.0,2359.0,13406988.0,
1228.0,3864.0,2286.0,2355.0,13406992.0,
1229.0,3865.0,2288.0,2355.0,13406997.0,
1229.0,3864.0,2293.0,2354.0,13407001.0,
1229.0,3866.0,2294.0,2347.0,13407005.0,
1228.0,3863.0,2296.0,2340.0,13407009.0,
1228.0,3864.0,2295.0,2339.0,13407013.0,
1227.0,3865.0,2299.0,2331.0,13407017.0,
1228.0,3865.0,2300.0,2329.0,13407021.0,
1229.0,3866.0,2300.0,2323.0,13407025.0,
1228.0,3863.0,2302.0,2314.0,13407029.0,
1229.0,3864.0,2304.0,2304.0,13407033.0,
1227.0,3863.0,2303.0,2292.0,13407037.0,
1228.0,3865.0,2303.0,2286.0,13407040.0,
1230.0,3866.0,2305.0,2273.0,13407044.0,
1230.0,3865.0,2305.0,2263.0,13407048.0,
1228.0,3863.0,2307.0,2250.0,13407052.0,
1227.0,3866.0,2303.0,2239.0,13407057.0,
1229.0,3863.0,2305.0,2229.0,13407061.0,
1230.0,3865.0,2305.0,2216.0,13407065.0,
1230.0,3866.0,2306.0,2211.0,13407069.0,
1228.0,3866.0,2303.0,2202.0,13407073.0,
1228.0,3866.0,2305.0,2195.0,13407077.0,
1228.0,3866.0,2300.0,2186.0,13407081.0,
1230.0,3864.0,2302.0,2175.0,13407085.0,
1229.0,3865.0,2299.0,2168.0,13407089.0,
1228.0,3864.0,2298.0,2158.0,13407093.0,
1228.0,3863.0,2299.0,2153.0,13407096.0,
1228.0,3864.0,2298.0,2148.0,13407101.0,
1229.0,3866.0,2298.0,2142.0,13407105.0,
1230.0,3867.0,2295.0,2133.0,13407109.0,
1228.0,3867.0,2292.0,2133.0,13407113.0,
1227.0,3868.0,2286.0,2126.0,13407117.0,
1228.0,3866.0,2282.0,2126.0,13407121.0,
1230.0,3863.0,2277.0,2116.0,13407125.0,
1229.0,3864.0,2272.0,2116.0,13407129.0,
1229.0,3864.0,2270.0,2113.0,13407133.0,
1228.0,3865.0,2268.0,2112.0,13407137.0,
1226.0,3866.0,2264.0,2110.0,13407141.0,
1229.0,3866.0,2261.0,2106.0,13407145.0,
1229.0,3862.0,2260.0,2103.0,13407149.0,
1227.0,3865.0,2257.0,2105.0,13407153.0,
1228.0,3866.0,2250.0,2102.0,13407157.0,
1229.0,3864.0,2252.0,2101.0,13407161.0,
1229.0,3864.0,2248.0,2101.0,13407165.0,
1229.0,3861.0,2245.0,2097.0,13407169.0,
1228.0,3863.0,2244.0,2095.0,13407173.0,
1227.0,3861.0,2244.0,2093.0,13407177.0,
1228.0,3865.0,2244.0,2087.0,13407181.0,
1228.0,3863.0,2242.0,2086.0,13407185.0,
1229.0,3863.0,2244.0,2086.0,13407188.0,
1229.0,3865.0,2246.0,2082.0,13407192.0,
1227.0,3861.0,2249.0,2075.0,13407196.0,
1228.0,3864.0,2249.0,2075.0,13407200.0,
1229.0,3864.0,2250.0,2073.0,13407204.0,
1229.0,3861.0,2249.0,2065.0,13407208.0,
1228.0,3864.0,2249.0,2067.0,13407212.0,
1227.0,3865.0,2244.0,2058.0,13407216.0,
1228.0,3866.0,2242.0,2054.0,13407220.0,
1227.0,3866.0,2242.0,2055.0,13407224.0,
1230.0,3868.0,2241.0,2051.0,13407228.0,
1229.0,3867.0,2238.0,2047.0,13407232.0,
1228.0,3866.0,2237.0,2043.0,13407235.0,
1228.0,3861.0,2238.0,2037.0,13407239.0,
1229.0,3863.0,2236.0,2036.0,13407243.0,
1229.0,3862.0,2233.0,2033.0,13407247.0,
1229.0,3864.0,2233.0,2026.0,13407251.0,
1227.0,3865.0,2232.0,2023.0,13407255.0,
1229.0,3867.0,2228.0,2018.0,13407259.0,
1229.0,3865.0,2231.0,2010.0,13407263.0,
1229.0,3867.0,2225.0,2005.0,13407267.0,
1229.0,3864.0,2223.0,2001.0,13407270.0,
1228.0,3864.0,2224.0,1992.0,13407275.0,
1228.0,3864.0,2216.0,1989.0,13407280.0,
1229.0,3865.0,2214.0,1984.0,13407284.0,
1229.0,3864.0,2211.0,1983.0,13407287.0,
1228.0,3864.0,2207.0,1975.0,13407291.0,
1227.0,3862.0,2206.0,1971.0,13407295.0,
1228.0,3867.0,2199.0,1967.0,13407299.0,
1229.0,3863.0,2200.0,1960.0,13407303.0,
1230.0,3864.0,2199.0,1957.0,13407307.0,
1229.0,3863.0,2198.0,1955.0,13407311.0,
1227.0,3865.0,2196.0,1950.0,13407315.0,
1227.0,3863.0,2191.0,1945.0,13407319.0,
1227.0,3864.0,2192.0,1946.0,13407323.0,
1229.0,3864.0,2195.0,1942.0,13407327.0,
1230.0,3866.0,2193.0,1936.0,13407330.0,
1228.0,3863.0,2192.0,1930.0,13407334.0,
1228.0,3865.0,2190.0,1929.0,13407338.0,
1229.0,3864.0,2187.0,1927.0,13407342.0,
1231.0,3866.0,2181.0,1925.0,13407346.0,
1229.0,3862.0,2175.0,1919.0,13407350.0,
1227.0,3862.0,2170.0,1916.0,13407354.0,
1227.0,3863.0,2166.0,1908.0,13407358.0,
1229.0,3865.0,2162.0,1911.0,13407362.0,
1230.0,3864.0,2162.0,1909.0,13407366.0,
1229.0,3863.0,2158.0,1905.0,13407370.0,
1227.0,3866.0,2154.0,1907.0,13407374.0,
1228.0,3867.0,2151.0,1901.0,13407378.0,
1228.0,3864.0,2148.0,1895.0,13407382.0,
1229.0,3863.0,2149.0,1894.0,13407386.0,
1229.0,3862.0,2145.0,1893.0,13407390.0,
1228.0,3869.0,2142.0,1891.0,13407394.0,
1227.0,3862.0,2141.0,1884.0,13407398.0,
1229.0,3867.0,2135.0,1881.0,13407401.0,
1229.0,3867.0,2133.0,1882.0,13407405.0,
1229.0,3866.0,2131.0,1882.0,13407409.0,
1228.0,3865.0,2132.0,1879.0,13407413.0,
1228.0,3863.0,2128.0,1879.0,13407417.0,
1227.0,3864.0,2126.0,1877.0,13407421.0,
1228.0,3865.0,2127.0,1874.0,13407425.0,
1230.0,3865.0,2127.0,1876.0,13407429.0,
1229.0,3863.0,2126.0,1873.0,13407433.0,
1229.0,3864.0,2125.0,1873.0,13407437.0,
1229.0,3864.0,2125.0,1871.0,13407441.0,
1229.0,3866.0,2124.0,1873.0,13407445.0,
1230.0,3865.0,2122.0,1869.0,13407449.0,
1229.0,3866.0,2123.0,1872.0,13407453.0,
1227.0,3864.0,2122.0,1869.0,13407456.0,
1227.0,3863.0,2124.0,1868.0,13407460.0,
1229.0,3866.0,2120.0,1871.0,13407464.0,
1230.0,3867.0,2116.0,1870.0,13407468.0,
1228.0,3865.0,2116.0,1870.0,13407472.0,
1228.0,3862.0,2112.0,1868.0,13407476.0,
1228.0,3864.0,2111.0,1868.0,13407480.0,
1230.0,3864.0,2111.0,1863.0,13407483.0,
1230.0,3865.0,2113.0,1862.0,13407487.0,
1228.0,3864.0,2109.0,1864.0,13407491.0,
1227.0,3866.0,2112.0,1859.0,13407495.0,
1227.0,3864.0,2108.0,1858.0,13407499.0,
1228.0,3866.0,2107.0,1855.0,13407503.0,
1230.0,3864.0,2104.0,1853.0,13407507.0,
1229.0,3866.0,2104.0,1851.0,13407511.0,
1227.0,3865.0,2102.0,1849.0,13407515.0,
1227.0,3866.0,2100.0,1849.0,13407519.0,
1229.0,3864.0,2102.0,1847.0,13407522.0,
1229.0,3866.0,2100.0,1844.0,13407526.0,
1230.0,3862.0,2098.0,1842.0,13407530.0,
1228.0,3865.0,2095.0,1842.0,13407534.0,
1227.0,3866.0,2089.0,1840.0,13407538.0,
1228.0,3864.0,2093.0,1838.0,13407542.0,
1230.0,3867.0,2085.0,1833.0,13407546.0,
1230.0,3865.0,2083.0,1826.0,13407550.0,
1228.0,3865.0,2079.0,1827.0,13407554.0,
1228.0,3865.0,2076.0,1817.0,13407558.0,
1229.0,3866.0,2071.0,1812.0,13407562.0,
1229.0,3863.0,2069.0,1806.0,13407565.0,
1229.0,3864.0,2068.0,1803.0,13407569.0,
1228.0,3864.0,2066.0,1800.0,13407573.0,
1227.0,3865.0,2064.0,1799.0,13407577.0,
1229.0,3869.0,2060.0,1801.0,13407581.0,
1229.0,3863.0,2058.0,1794.0,13407585.0,
1230.0,3865.0,2053.0,1796.0,13407589.0,
1228.0,3864.0,2053.0,1794.0,13407593.0,
1228.0,3866.0,2053.0,1800.0,13407596.0,
1227.0,3866.0,2053.0,1799.0,13407600.0,
1230.0,3865.0,2054.0,1798.0,13407604.0,
1229.0,3865.0,2053.0,1798.0,13407608.0,
1229.0,3866.0,2054.0,1799.0,13407612.0,
1227.0,3863.0,2052.0,1796.0,13407617.0,
1227.0,3866.0,2048.0,1800.0,13407620.0,
1228.0,3865.0,2045.0,1798.0,13407624.0,
1230.0,3865.0,2042.0,1799.0,13407628.0,
1229.0,3866.0,2041.0,1803.0,13407632.0,
1227.0,3863.0,2038.0,1805.0,13407636.0,
1228.0,3866.0,2036.0,1810.0,13407640.0,
1230.0,3863.0,2036.0,1813.0,13407644.0,
1229.0,3865.0,2036.0,1819.0,13407648.0,
1229.0,3863.0,2028.0,1825.0,13407651.0,
1227.0,3864.0,2028.0,1831.0,13407655.0,
1227.0,3863.0,2023.0,1837.0,13407659.0,
1229.0,3864.0,2016.0,1845.0,13407663.0,
1229.0,3862.0,2012.0,1857.0,13407667.0,
1228.0,3865.0,2006.0,1869.0,13407671.0,
1227.0,3863.0,2006.0,1879.0,13407675.0,
1228.0,3865.0,2004.0,1892.0,13407679.0,
1229.0,3864.0,2004.0,1910.0,13407683.0,
1229.0,3862.0,2005.0,1921.0,13407687.0,
1230.0,3866.0,2005.0,1940.0,13407691.0,
1227.0,3862.0,2008.0,1957.0,13407694.0,
1227.0,3861.0,2007.0,1978.0,13407699.0,
1229.0,3866.0,2008.0,1998.0,13407703.0,
1229.0,3867.0,2008.0,2020.0,13407707.0,
1229.0,3864.0,2012.0,2036.0,13407711.0,
1228.0,3864.0,2011.0,2060.0,13407715.0,
1228.0,3863.0,2014.0,2079.0,13407719.0,
1229.0,3866.0,2017.0,2102.0,13407722.0,
1229.0,3862.0,2020.0,2122.0,13407726.0,
1230.0,3862.0,2024.0,2143.0,13407730.0,
1228.0,3866.0,2028.0,2160.0,13407734.0,
1228.0,3866.0,2029.0,2178.0,13407738.0,
1229.0,3864.0,2037.0,2196.0,13407742.0,
1230.0,3865.0,2044.0,2211.0,13407747.0,
1229.0,3864.0,2049.0,2225.0,13407751.0,
1228.0,3863.0,2063.0,2240.0,13407755.0,
1228.0,3864.0,2070.0,2251.0,13407759.0,
1229.0,3864.0,2081.0,2264.0,13407763.0,
1230.0,3865.0,2090.0,2276.0,13407767.0,
1230.0,3863.0,2101.0,2284.0,13407771.0,
1228.0,3863.0,2111.0,2293.0,13407775.0,
1228.0,3864.0,2125.0,2298.0,13407778.0,
1229.0,3866.0,2136.0,2304.0,13407783.0,
1227.0,3865.0,2147.0,2306.0,13407786.0,
1230.0,3865.0,2159.0,2309.0,13407790.0,
1229.0,3864.0,2171.0,2310.0,13407794.0,
1228.0,3864.0,2183.0,2311.0,13407798.0,
1230.0,3866.0,2198.0,2319.0,13407802.0,
1231.0,3862.0,2211.0,2317.0,13407806.0,
1230.0,3868.0,2220.0,2321.0,13407810.0,
1229.0,3865.0,2234.0,2321.0,13407814.0,
1228.0,3866.0,2246.0,2321.0,13407818.0,
1229.0,3866.0,2258.0,2321.0,13407822.0,
1230.0,3867.0,2266.0,2321.0,13407826.0,
1230.0,3866.0,2275.0,2321.0,13407829.0,
1229.0,3866.0,2284.0,2319.0,13407833.0,
1228.0,3866.0,2290.0,2321.0,13407837.0,
1229.0,3862.0,2299.0,2313.0,13407841.0,
1230.0,3864.0,2306.0,2311.0,13407845.0,
1231.0,3864.0,2314.0,2309.0,13407849.0,
1229.0,3862.0,2320.0,2307.0,13407853.0,
1229.0,3863.0,2325.0,2304.0,13407857.0,
1229.0,3864.0,2333.0,2301.0,13407861.0,
1230.0,3865.0,2338.0,2299.0,13407864.0,
1230.0,3866.0,2343.0,2297.0,13407868.0,
1230.0,3863.0,2347.0,2297.0,13407872.0,
1229.0,3860.0,2351.0,2294.0,13407876.0,
1229.0,3867.0,2356.0,2290.0,13407880.0,
1230.0,3869.0,2362.0,2284.0,13407884.0,
1231.0,3865.0,2364.0,2277.0,13407888.0,
1230.0,3868.0,2364.0,2269.0,13407892.0,
1229.0,3866.0,2368.0,2261.0,13407896.0,
1229.0,3867.0,2369.0,2252.0,13407900.0,
1230.0,3868.0,2369.0,2243.0,13407903.0,
1230.0,3865.0,2368.0,2234.0,13407907.0,
1229.0,3861.0,2369.0,2223.0,13407911.0,
1229.0,3864.0,2368.0,2213.0,13407915.0,
1227.0,3863.0,2365.0,2203.0,13407919.0,
1230.0,3864.0,2364.0,2194.0,13407923.0,
1230.0,3864.0,2362.0,2182.0,13407927.0,
1230.0,3863.0,2355.0,2174.0,13407931.0,
1228.0,3864.0,2352.0,2163.0,13407934.0,
1228.0,3864.0,2348.0,2159.0,13407938.0,
1230.0,3864.0,2343.0,2156.0,13407942.0,
1231.0,3864.0,2339.0,2149.0,13407946.0,
1230.0,3865.0,2332.0,2143.0,13407950.0,
1227.0,3867.0,2328.0,2141.0,13407954.0,
1228.0,3867.0,2323.0,2133.0,13407958.0,
1228.0,3865.0,2320.0,2130.0,13407962.0,
1231.0,3865.0,2314.0,2126.0,13407965.0,
1230.0,3865.0,2311.0,2121.0,13407969.0,
1229.0,3862.0,2305.0,2119.0,13407973.0,
1228.0,3867.0,2300.0,2115.0,13407977.0,
1229.0,3867.0,2296.0,2116.0,13407981.0,
1230.0,3866.0,2293.0,2112.0,13407985.0,
1230.0,3866.0,2290.0,2112.0,13407989.0,
1230.0,3865.0,2283.0,2108.0,13407992.0,
1229.0,3863.0,2282.0,2105.0,13407996.0,
1229.0,3866.0,2279.0,2104.0,13408000.0,
1231.0,3863.0,2277.0,2104.0,13408004.0,
1231.0,3865.0,2272.0,2100.0,13408008.0,
1230.0,3862.0,2266.0,2099.0,13408012.0,
1229.0,3863.0,2262.0,2096.0,13408016.0,
1229.0,3864.0,2257.0,2094.0,13408020.0,
1230.0,3866.0,2251.0,2091.0,13408024.0,
1231.0,3865.0,2249.0,2089.0,13408028.0,
1230.0,3863.0,2245.0,2086.0,13408031.0,
1228.0,3867.0,2243.0,2084.0,13408035.0,
1229.0,3864.0,2237.0,2079.0,13408039.0,
1230.0,3863.0,2237.0,2074.0,13408043.0,
1230.0,3867.0,2233.0,2065.0,13408047.0,
1231.0,3862.0,2234.0,2064.0,13408051.0,
1229.0,3863.0,2233.0,2057.0,13408055.0,
1229.0,3865.0,2231.0,2049.0,13408059.0,
1231.0,3865.0,2233.0,2043.0,13408063.0,
1232.0,3867.0,2229.0,2040.0,13408067.0,
1231.0,3864.0,2230.0,2032.0,13408071.0,
1228.0,3862.0,2232.0,2026.0,13408075.0,
1229.0,3866.0,2229.0,2023.0,13408079.0,
1230.0,3866.0,2226.0,2018.0,13408083.0,
1230.0,3864.0,2223.0,2011.0,13408087.0,
1233.0,3867.0,2223.0,2009.0,13408091.0,
1229.0,3864.0,2220.0,2002.0,13408095.0,
1230.0,3867.0,2217.0,1997.0,13408099.0,
1231.0,3863.0,2213.0,1996.0,13408103.0,
1231.0,3862.0,2208.0,1991.0,13408107.0,
1230.0,3863.0,2207.0,1987.0,13408111.0,
1229.0,3866.0,2204.0,1983.0,13408115.0,
1228.0,3864.0,2201.0,1979.0,13408119.0,
1230.0,3863.0,2198.0,1974.0,13408123.0,
1231.0,3866.0,2196.0,1972.0,13408127.0,
1232.0,3862.0,2193.0,1968.0,13408131.0,
1229.0,3862.0,2192.0,1965.0,13408135.0,
1229.0,3864.0,2190.0,1959.0,13408139.0,
1230.0,3866.0,2189.0,1958.0,13408143.0,
1231.0,3864.0,2191.0,1951.0,13408147.0,
1231.0,3865.0,2191.0,1950.0,13408151.0,
1229.0,3862.0,2187.0,1947.0,13408154.0,
1229.0,3862.0,2186.0,1943.0,13408158.0,
1230.0,3866.0,2184.0,1942.0,13408162.0,
1231.0,3856.0,2182.0,1939.0,13408166.0,
1230.0,3866.0,2184.0,1934.0,13408170.0,
1228.0,3866.0,2178.0,1930.0,13408174.0,
1229.0,3862.0,2178.0,1921.0,13408178.0,
1230.0,3864.0,2177.0,1921.0,13408182.0,
1231.0,3863.0,2175.0,1914.0,13408186.0,
1230.0,3868.0,2169.0,1910.0,13408189.0,
1228.0,3861.0,2170.0,1906.0,13408193.0,
1229.0,3863.0,2166.0,1906.0,13408197.0,
1229.0,3864.0,2163.0,1906.0,13408201.0,
1230.0,3866.0,2154.0,1904.0,13408205.0,
1231.0,3863.0,2150.0,1901.0,13408209.0,
1230.0,3862.0,2141.0,1902.0,13408213.0,
1230.0,3863.0,2140.0,1898.0,13408217.0,
1230.0,3864.0,2137.0,1898.0,13408221.0,
1231.0,3862.0,2133.0,1891.0,13408225.0,
1231.0,3868.0,2127.0,1892.0,13408228.0,
1231.0,3864.0,2126.0,1886.0,13408232.0,
1229.0,3866.0,2122.0,1883.0,13408236.0,
1231.0,3862.0,2117.0,1877.0,13408240.0,
1231.0,3864.0,2110.0,1877.0,13408244.0,
1232.0,3865.0,2107.0,1868.0,13408248.0,
1230.0,3866.0,2105.0,1870.0,13408252.0,
1228.0,3863.0,2102.0,1865.0,13408256.0,
1229.0,3864.0,2102.0,1866.0,13408260.0,
1230.0,3861.0,2102.0,1862.0,13408264.0,
1231.0,3864.0,2099.0,1859.0,13408268.0,
1230.0,3865.0,2100.0,1858.0,13408271.0,
1229.0,3862.0,2100.0,1856.0,13408275.0,
1229.0,3868.0,2101.0,1858.0,13408279.0,
1230.0,3864.0,2103.0,1853.0,13408283.0,
1231.0,3862.0,2101.0,1856.0,13408287.0,
1230.0,3865.0,2098.0,1860.0,13408293.0,
1229.0,3863.0,2097.0,1856.0,13408297.0,
1229.0,3864.0,2092.0,1857.0,13408301.0,
1231.0,3861.0,2092.0,1856.0,13408305.0,
1231.0,3864.0,2087.0,1857.0,13408309.0,
1229.0,3863.0,2086.0,1854.0,13408312.0,
1228.0,3864.0,2081.0,1854.0,13408316.0,
1230.0,3868.0,2074.0,1856.0,13408320.0,
1231.0,3864.0,2073.0,1854.0,13408324.0,
1231.0,3865.0,2070.0,1855.0,13408328.0,
1231.0,3861.0,2066.0,1856.0,13408332.0,
1228.0,3867.0,2061.0,1855.0,13408336.0,
1229.0,3861.0,2058.0,1856.0,13408340.0,
1231.0,3866.0,2052.0,1856.0,13408343.0,
1231.0,3861.0,2052.0,1853.0,13408347.0,
1231.0,3861.0,2050.0,1853.0,13408351.0,
1229.0,3865.0,2051.0,1857.0,13408355.0,
1229.0,3864.0,2054.0,1856.0,13408359.0,
1230.0,3866.0,2052.0,1856.0,13408363.0,
1231.0,3861.0,2057.0,1853.0,13408367.0,
1231.0,3862.0,2054.0,1850.0,13408371.0,
1229.0,3860.0,2053.0,1851.0,13408375.0,
1228.0,3861.0,2058.0,1848.0,13408379.0,
1230.0,3863.0,2055.0,1847.0,13408383.0,
1231.0,3862.0,2060.0,1843.0,13408387.0,
1231.0,3862.0,2061.0,1845.0,13408391.0,
1229.0,3864.0,2057.0,1840.0,13408395.0,
1228.0,3862.0,2059.0,1839.0,13408399.0,
1230.0,3865.0,2060.0,1839.0,13408403.0,
1231.0,3862.0,2056.0,1834.0,13408406.0,
1232.0,3863.0,2056.0,1835.0,13408410.0,
1229.0,3860.0,2056.0,1832.0,13408414.0,
1229.0,3864.0,2050.0,1834.0,13408418.0,
1229.0,3866.0,2050.0,1828.0,13408422.0,
1231.0,3862.0,2048.0,1828.0,13408426.0,
1230.0,3864.0,2046.0,1829.0,13408430.0,
1230.0,3859.0,2044.0,1824.0,13408434.0,
1229.0,3865.0,2045.0,1826.0,13408438.0,
1230.0,3862.0,2042.0,1822.0,13408441.0,
1231.0,3863.0,2041.0,1819.0,13408445.0,
1231.0,3865.0,2038.0,1819.0,13408449.0,
1230.0,3864.0,2036.0,1815.0,13408453.0,
1230.0,3865.0,2035.0,1810.0,13408457.0,
1229.0,3865.0,2035.0,1809.0,13408461.0,
1230.0,3864.0,2032.0,1809.0,13408465.0,
1232.0,3865.0,2029.0,1802.0,13408469.0,
1230.0,3864.0,2026.0,1801.0,13408472.0,
1229.0,3863.0,2027.0,1796.0,13408476.0,
1230.0,3863.0,2028.0,1794.0,13408480.0,
1231.0,3861.0,2030.0,1794.0,13408484.0,
1231.0,3866.0,2031.0,1788.0,13408488.0,
1230.0,3864.0,2032.0,1786.0,13408492.0,
1229.0,3863.0,2031.0,1783.0,13408496.0,
1229.0,3863.0,2035.0,1777.0,13408500.0,
1230.0,3866.0,2031.0,1774.0,13408504.0,
1231.0,3863.0,2035.0,1773.0,13408508.0,
1231.0,3862.0,2035.0,1769.0,13408512.0,
1229.0,3865.0,2037.0,1761.0,13408516.0,
1229.0,3863.0,2033.0,1758.0,13408520.0,
1231.0,3865.0,2031.0,1758.0,13408523.0,
1231.0,3867.0,2032.0,1754.0,13408527.0,
1231.0,3863.0,2023.0,1749.0,13408531.0,
1230.0,3863.0,2022.0,1750.0,13408535.0,
1231.0,3864.0,2019.0,1751.0,13408539.0,
1231.0,3865.0,2013.0,1753.0,13408543.0,
1232.0,3864.0,2008.0,1753.0,13408547.0,
1231.0,3864.0,2006.0,1758.0,13408551.0,
1226.0,3863.0,2000.0,1761.0,13408555.0,
1230.0,3864.0,1996.0,1770.0,13408559.0,
1230.0,3862.0,1992.0,1777.0,13408562.0,
1231.0,3862.0,1988.0,1791.0,13408566.0,
1231.0,3865.0,1984.0,1801.0,13408570.0,
1228.0,3864.0,1979.0,1815.0,13408574.0,
1229.0,3864.0,1970.0,1831.0,13408578.0,
1230.0,3861.0,1968.0,1845.0,13408582.0,
1231.0,3869.0,1961.0,1867.0,13408586.0,
1231.0,3860.0,1955.0,1882.0,13408590.0,
1231.0,3864.0,1951.0,1904.0,13408593.0,
1228.0,3862.0,1946.0,1919.0,13408597.0,
1229.0,3864.0,1945.0,1941.0,13408601.0,
1231.0,3865.0,1942.0,1961.0,13408605.0,
1233.0,3862.0,1940.0,1978.0,13408609.0,
1231.0,3865.0,1941.0,2000.0,13408613.0,
1230.0,3863.0,1944.0,2017.0,13408617.0,
1231.0,3866.0,1945.0,2040.0,13408621.0,
1233.0,3862.0,1948.0,2054.0,13408624.0,
1231.0,3865.0,1948.0,2070.0,13408628.0,
1230.0,3862.0,1951.0,2085.0,13408632.0,
1229.0,3862.0,1956.0,2107.0,13408636.0,
1230.0,3862.0,1961.0,2115.0,13408640.0,
1231.0,3865.0,1967.0,2129.0,13408644.0,
1231.0,3861.0,1975.0,2143.0,13408648.0,
1231.0,3864.0,1986.0,2153.0,13408652.0,
1230.0,3858.0,1996.0,2163.0,13408656.0,
1230.0,3864.0,2003.0,2174.0,13408660.0,
1230.0,3862.0,2016.0,2181.0,13408663.0,
1232.0,3866.0,2026.0,2193.0,13408667.0,
1231.0,3864.0,2038.0,2203.0,13408671.0,
1230.0,3863.0,2051.0,2215.0,13408675.0,
1230.0,3864.0,2063.0,2219.0,13408679.0,
1231.0,3865.0,2071.0,2231.0,13408683.0,
1231.0,3864.0,2084.0,2238.0,13408687.0,
1232.0,3865.0,2096.0,2243.0,13408691.0,
1230.0,3865.0,2106.0,2251.0,13408695.0,
1230.0,3863.0,2116.0,2255.0,13408699.0,
1231.0,3864.0,2122.0,2258.0,13408703.0,
1232.0,3864.0,2132.0,2264.0,13408707.0,
1232.0,3862.0,2143.0,2261.0,13408711.0,
1230.0,3865.0,2149.0,2266.0,13408715.0,
1230.0,3866.0,2159.0,2266.0,13408719.0,
1232.0,3862.0,2166.0,2262.0,13408723.0,
1232.0,3858.0,2174.0,2258.0,13408727.0,
1232.0,3861.0,2181.0,2258.0,13408731.0,
1230.0,3863.0,2191.0,2260.0,13408735.0,
1230.0,3864.0,2197.0,2255.0,13408739.0,
1231.0,3865.0,2205.0,2257.0,13408743.0,
1232.0,3864.0,2214.0,2255.0,13408747.0,
1232.0,3863.0,2219.0,2252.0,13408751.0,
1231.0,3864.0,2223.0,2248.0,13408755.0,
1231.0,3864.0,2228.0,2240.0,13408758.0,
1231.0,3863.0,2229.0,2236.0,13408762.0,
1232.0,3865.0,2230.0,2228.0,13408766.0,
1232.0,3862.0,2228.0,2222.0,13408770.0,
1230.0,3862.0,2228.0,2216.0,13408774.0,
1230.0,3865.0,2228.0,2212.0,13408778.0,
1231.0,3865.0,2228.0,2206.0,13408782.0,
1232.0,3864.0,2228.0,2196.0,13408786.0,
1233.0,3863.0,2229.0,2188.0,13408789.0,
1232.0,3862.0,2225.0,2183.0,13408793.0,
1230.0,3863.0,2221.0,2171.0,13408797.0,
1231.0,3865.0,2220.0,2164.0,13408801.0,
1232.0,3863.0,2216.0,2157.0,13408805.0,
1232.0,3862.0,2214.0,2150.0,13408809.0,
1232.0,3864.0,2211.0,2146.0,13408813.0,
1230.0,3864.0,2209.0,2136.0,13408816.0,
1231.0,3863.0,2204.0,2129.0,13408820.0,
1232.0,3865.0,2202.0,2121.0,13408824.0,
1232.0,3863.0,2203.0,2110.0,13408828.0,
1232.0,3862.0,2199.0,2107.0,13408832.0,
1231.0,3864.0,2197.0,2100.0,13408836.0,
1231.0,3865.0,2196.0,2090.0,13408840.0,
1231.0,3866.0,2193.0,2087.0,13408844.0,
1233.0,3865.0,2195.0,2080.0,13408847.0,
1232.0,3862.0,2193.0,2075.0,13408851.0,
1231.0,3861.0,2187.0,2069.0,13408855.0,
1230.0,3865.0,2184.0,2067.0,13408859.0,
1233.0,3866.0,2182.0,2063.0,13408863.0,
1232.0,3863.0,2177.0,2058.0,13408867.0,
1232.0,3861.0,2169.0,2053.0,13408871.0,
1231.0,3864.0,2161.0,2051.0,13408876.0,
1231.0,3870.0,2155.0,2046.0,13408880.0,
1231.0,3860.0,2153.0,2046.0,13408884.0,
1232.0,3863.0,2149.0,2041.0,13408887.0,
1233.0,3863.0,2144.0,2042.0,13408891.0,
1233.0,3864.0,2139.0,2041.0,13408895.0,
1231.0,3863.0,2137.0,2044.0,13408899.0,
1232.0,3865.0,2134.0,2047.0,13408903.0,
1232.0,3861.0,2128.0,2045.0,13408907.0,
1234.0,3863.0,2125.0,2049.0,13408911.0,
1230.0,3865.0,2123.0,2047.0,13408915.0,
1231.0,3863.0,2117.0,2050.0,13408919.0,
1232.0,3861.0,2117.0,2047.0,13408922.0,
1234.0,3863.0,2111.0,2050.0,13408926.0,
1232.0,3863.0,2114.0,2048.0,13408930.0,
1230.0,3864.0,2114.0,2049.0,13408934.0,
1231.0,3863.0,2111.0,2047.0,13408938.0,
1232.0,3864.0,2109.0,2045.0,13408942.0,
1233.0,3861.0,2111.0,2046.0,13408946.0,
1233.0,3864.0,2108.0,2043.0,13408950.0,
1232.0,3862.0,2103.0,2042.0,13408954.0,
1230.0,3863.0,2101.0,2040.0,13408958.0,
1232.0,3862.0,2096.0,2034.0,13408962.0,
1233.0,3866.0,2090.0,2037.0,13408965.0,
1233.0,3861.0,2086.0,2033.0,13408969.0,
1231.0,3864.0,2081.0,2031.0,13408973.0,
1231.0,3863.0,2074.0,2028.0,13408977.0,
1232.0,3862.0,2070.0,2022.0,13408981.0,
1232.0,3863.0,2068.0,2019.0,13408985.0,
1233.0,3862.0,2066.0,2012.0,13408989.0,
1232.0,3864.0,2063.0,2010.0,13408993.0,
1231.0,3863.0,2058.0,2006.0,13408997.0,
1231.0,3864.0,2060.0,2001.0,13409001.0,
1232.0,3863.0,2052.0,1996.0,13409005.0,
1232.0,3863.0,2055.0,1987.0,13409009.0,
1230.0,3862.0,2053.0,1981.0,13409013.0,
1230.0,3863.0,2055.0,1976.0,13409017.0,
1232.0,3866.0,2051.0,1968.0,13409021.0,
1232.0,3863.0,2050.0,1963.0,13409025.0,
1232.0,3866.0,2049.0,1956.0,13409029.0,
1232.0,3861.0,2050.0,1949.0,13409033.0,
1231.0,3864.0,2047.0,1946.0,13409037.0,
1231.0,3863.0,2045.0,1935.0,13409041.0,
1233.0,3865.0,2043.0,1933.0,13409045.0,
1233.0,3862.0,2038.0,1924.0,13409049.0,
1232.0,3865.0,2039.0,1924.0,13409052.0,
1231.0,3864.0,2037.0,1918.0,13409056.0,
1232.0,3862.0,2034.0,1912.0,13409060.0,
1232.0,3865.0,2031.0,1911.0,13409064.0,
1233.0,3862.0,2033.0,1906.0,13409068.0,
1232.0,3864.0,2031.0,1903.0,13409072.0,
1230.0,3864.0,2029.0,1899.0,13409076.0,
1231.0,3866.0,2026.0,1900.0,13409080.0,
1232.0,3863.0,2026.0,1897.0,13409084.0,
1233.0,3865.0,2025.0,1894.0,13409087.0,
1232.0,3861.0,2031.0,1895.0,13409091.0,
1231.0,3865.0,2031.0,1892.0,13409095.0,
1231.0,3863.0,2033.0,1888.0,13409099.0,
1232.0,3865.0,2034.0,1889.0,13409103.0,
1233.0,3863.0,2033.0,1888.0,13409107.0,
1233.0,3864.0,2030.0,1886.0,13409111.0,
1232.0,3864.0,2031.0,1887.0,13409114.0,
1230.0,3867.0,2032.0,1885.0,13409118.0,
1232.0,3865.0,2026.0,1881.0,13409122.0,
1232.0,3863.0,2022.0,1879.0,13409126.0,
1233.0,3863.0,2019.0,1874.0,13409130.0,
1231.0,3862.0,2019.0,1875.0,13409134.0,
1230.0,3864.0,2013.0,1871.0,13409138.0,
1232.0,3862.0,2009.0,1869.0,13409142.0,
1233.0,3866.0,2004.0,1869.0,13409146.0,
1232.0,3862.0,2001.0,1866.0,13409150.0,
1231.0,3865.0,1998.0,1872.0,13409154.0,
1231.0,3863.0,1996.0,1869.0,13409157.0,
1231.0,3862.0,1997.0,1870.0,13409161.0,
1234.0,3867.0,1998.0,1873.0,13409165.0,
1233.0,3865.0,1995.0,1871.0,13409169.0,
1232.0,3866.0,1993.0,1873.0,13409173.0,
1231.0,3865.0,1995.0,1873.0,13409177.0,
1232.0,3863.0,1996.0,1873.0,13409181.0,
1232.0,3865.0,1995.0,1874.0,13409185.0,
1233.0,3865.0,1993.0,1878.0,13409189.0,
1232.0,3861.0,1993.0,1877.0,13409193.0,
1232.0,3868.0,1994.0,1875.0,13409196.0,
1231.0,3863.0,1994.0,1874.0,13409200.0,
1231.0,3866.0,1991.0,1878.0,13409204.0,
1232.0,3865.0,1990.0,1875.0,13409208.0,
1232.0,3864.0,1988.0,1878.0,13409212.0,
1230.0,3862.0,1984.0,1872.0,13409216.0,
1231.0,3865.0,1981.0,1872.0,13409220.0,
1232.0,3863.0,1978.0,1871.0,13409224.0,
1231.0,3862.0,1970.0,1870.0,13409228.0,
1232.0,3862.0,1971.0,1865.0,13409232.0,
1232.0,3865.0,1965.0,1868.0,13409236.0,
1231.0,3865.0,1963.0,1862.0,13409240.0,
1233.0,3865.0,1957.0,1864.0,13409244.0,
1233.0,3864.0,1954.0,1862.0,13409248.0,
1233.0,3863.0,1952.0,1860.0,13409252.0,
1231.0,3864.0,1950.0,1858.0,13409256.0,
1232.0,3865.0,1948.0,1856.0,13409260.0,
1232.0,3862.0,1948.0,1855.0,13409264.0,
1233.0,3862.0,1948.0,1851.0,13409268.0,
1232.0,3863.0,1945.0,1855.0,13409272.0,
1230.0,3862.0,1945.0,1852.0,13409276.0,
1231.0,3865.0,1942.0,1852.0,13409280.0,
1232.0,3864.0,1936.0,1853.0,13409284.0,
1233.0,3861.0,1935.0,1848.0,13409288.0,
1232.0,3864.0,1935.0,1851.0,13409292.0,
1232.0,3866.0,1934.0,1847.0,13409296.0,
1232.0,3866.0,1929.0,1851.0,13409301.0,
1233.0,3864.0,1931.0,1846.0,13409306.0,
1233.0,3863.0,1930.0,1846.0,13409310.0,
1232.0,3862.0,1927.0,1848.0,13409314.0,
1231.0,3863.0,1926.0,1842.0,13409319.0,
1233.0,3864.0,1926.0,1841.0,13409323.0,
1233.0,3863.0,1928.0,1839.0,13409327.0,
1232.0,3865.0,1933.0,1835.0,13409331.0,
1231.0,3863.0,1933.0,1830.0,13409335.0,
1232.0,3864.0,1935.0,1833.0,13409338.0,
1232.0,3862.0,1934.0,1832.0,13409342.0,
1233.0,3865.0,1933.0,1831.0,13409346.0,
1234.0,3867.0,1935.0,1830.0,13409350.0,
1232.0,3862.0,1932.0,1826.0,13409354.0,
1231.0,3864.0,1928.0,1821.0,13409358.0,
1232.0,3863.0,1925.0,1819.0,13409362.0,
1234.0,3865.0,1923.0,1816.0,13409366.0,
1233.0,3862.0,1919.0,1812.0,13409370.0,
1232.0,3864.0,1915.0,1809.0,13409373.0,
1231.0,3865.0,1916.0,1803.0,13409377.0,
1231.0,3865.0,1909.0,1800.0,13409381.0,
1233.0,3864.0,1907.0,1795.0,13409385.0,
1234.0,3863.0,1903.0,1793.0,13409389.0,
1232.0,3865.0,1900.0,1788.0,13409393.0,
1232.0,3861.0,1894.0,1784.0,13409397.0,
1231.0,3863.0,1897.0,1785.0,13409400.0,
1233.0,3866.0,1893.0,1780.0,13409404.0,
1234.0,3865.0,1893.0,1779.0,13409408.0,
1233.0,3864.0,1895.0,1777.0,13409412.0,
1232.0,3867.0,1891.0,1776.0,13409416.0,
1232.0,3861.0,1891.0,1773.0,13409420.0,
1233.0,3865.0,1890.0,1774.0,13409424.0,
1234.0,3863.0,1893.0,1772.0,13409428.0,
1232.0,3863.0,1896.0,1776.0,13409432.0,
1231.0,3865.0,1899.0,1774.0,13409436.0,
1232.0,3865.0,1901.0,1778.0,13409440.0,
1233.0,3867.0,1900.0,1780.0,13409444.0,
1234.0,3866.0,1903.0,1783.0,13409448.0,
1233.0,3865.0,1905.0,1794.0,13409452.0,
1232.0,3863.0,1907.0,1799.0,13409456.0,
1231.0,3866.0,1910.0,1809.0,13409460.0,
1232.0,3862.0,1910.0,1820.0,13409464.0,
1234.0,3866.0,1912.0,1831.0,13409468.0,
1234.0,3862.0,1914.0,1842.0,13409471.0,
1231.0,3860.0,1918.0,1861.0,13409475.0,
1232.0,3864.0,1914.0,1875.0,13409479.0,
1232.0,3863.0,1916.0,1891.0,13409483.0,
1234.0,3864.0,1914.0,1906.0,13409487.0,
1234.0,3863.0,1915.0,1923.0,13409491.0,
1232.0,3864.0,1913.0,1948.0,13409495.0,
1231.0,3863.0,1914.0,1964.0,13409498.0,
1232.0,3862.0,1916.0,1983.0,13409502.0,
1233.0,3865.0,1914.0,2001.0,13409506.0,
1234.0,3864.0,1917.0,2016.0,13409510.0,
1232.0,3864.0,1919.0,2033.0,13409514.0,
1232.0,3863.0,1922.0,2048.0,13409518.0,
1233.0,3865.0,1921.0,2063.0,13409522.0,
1233.0,3866.0,1929.0,2075.0,13409526.0,
1233.0,3864.0,1931.0,2093.0,13409529.0,
1233.0,3864.0,1936.0,2103.0,13409533.0,
1232.0,3861.0,1942.0,2111.0,13409537.0,
1232.0,3862.0,1947.0,2124.0,13409541.0,
1234.0,3867.0,1949.0,2133.0,13409545.0,
1234.0,3862.0,1955.0,2141.0,13409549.0,
1233.0,3860.0,1959.0,2148.0,13409553.0,
1232.0,3864.0,1963.0,2160.0,13409557.0,
1232.0,3864.0,1968.0,2165.0,13409561.0,
1233.0,3863.0,1973.0,2171.0,13409565.0,
1234.0,3862.0,1979.0,2173.0,13409569.0,
1233.0,3864.0,1981.0,2182.0,13409573.0,
1232.0,3863.0,1984.0,2185.0,13409576.0,
1232.0,3863.0,1990.0,2187.0,13409580.0,
1233.0,3865.0,1989.0,2191.0,13409584.0,
1234.0,3865.0,1993.0,2193.0,13409588.0,
1234.0,3863.0,1994.0,2194.0,13409592.0,
1232.0,3866.0,1996.0,2192.0,13409596.0,
1232.0,3864.0,2000.0,2194.0,13409600.0,
1235.0,3864.0,1999.0,2194.0,13409604.0,
1235.0,3861.0,2002.0,2197.0,13409608.0,
1233.0,3865.0,2002.0,2196.0,13409612.0,
1233.0,3862.0,2003.0,2197.0,13409616.0,
1233.0,3864.0,2003.0,2196.0,13409620.0,
1234.0,3863.0,2003.0,2194.0,13409624.0,
1235.0,3863.0,2003.0,2192.0,13409628.0,
1233.0,3866.0,2006.0,2190.0,13409632.0,
1233.0,3865.0,2009.0,2186.0,13409636.0,
1233.0,3866.0,2007.0,2181.0,13409641.0,
1233.0,3862.0,2005.0,2178.0,13409645.0,
1234.0,3862.0,2007.0,2172.0,13409649.0,
1234.0,3863.0,2006.0,2164.0,13409653.0,
1232.0,3864.0,2006.0,2160.0,13409657.0,
1234.0,3863.0,2006.0,2154.0,13409661.0,
1234.0,3866.0,2003.0,2148.0,13409665.0,
1235.0,3863.0,2001.0,2143.0,13409669.0,
1233.0,3866.0,1998.0,2139.0,13409673.0,
1234.0,3863.0,1998.0,2133.0,13409677.0,
1233.0,3865.0,1997.0,2130.0,13409680.0,
1233.0,3866.0,1995.0,2125.0,13409684.0,
1235.0,3864.0,1998.0,2120.0,13409688.0,
1234.0,3862.0,1997.0,2118.0,13409692.0,
1232.0,3862.0,1993.0,2110.0,13409696.0,
1233.0,3865.0,1993.0,2110.0,13409700.0,
1234.0,3863.0,1990.0,2102.0,13409704.0,
1235.0,3865.0,1989.0,2099.0,13409708.0,
1234.0,3862.0,1988.0,2093.0,13409712.0,
1234.0,3863.0,1986.0,2091.0,13409715.0,
1232.0,3867.0,1983.0,2086.0,13409719.0,
1234.0,3863.0,1979.0,2081.0,13409723.0,
1234.0,3863.0,1978.0,2076.0,13409727.0,
1234.0,3865.0,1976.0,2072.0,13409731.0,
1233.0,3863.0,1970.0,2071.0,13409735.0,
1233.0,3865.0,1966.0,2068.0,13409739.0,
1233.0,3862.0,1962.0,2068.0,13409742.0,
1234.0,3865.0,1962.0,2061.0,13409746.0,
1234.0,3861.0,1958.0,2065.0,13409750.0,
1233.0,3867.0,1958.0,2062.0,13409754.0,
1233.0,3864.0,1953.0,2064.0,13409758.0,
1234.0,3864.0,1957.0,2061.0,13409762.0,
1235.0,3864.0,1959.0,2062.0,13409766.0,
1234.0,3863.0,1961.0,2054.0,13409770.0,
1234.0,3864.0,1964.0,2056.0,13409774.0,
1232.0,3862.0,1963.0,2054.0,13409778.0,
1233.0,3864.0,1964.0,2051.0,13409782.0,
1234.0,3865.0,1964.0,2053.0,13409785.0,
1234.0,3865.0,1967.0,2057.0,13409789.0,
1233.0,3863.0,1968.0,2055.0,13409793.0,
1233.0,3866.0,1970.0,2054.0,13409797.0,
1233.0,3864.0,1971.0,2051.0,13409801.0,
1235.0,3861.0,1976.0,2049.0,13409805.0,
1235.0,3864.0,1978.0,2046.0,13409809.0,
1234.0,3861.0,1978.0,2045.0,13409813.0,
1233.0,3862.0,1980.0,2044.0,13409817.0,
1233.0,3863.0,1982.0,2043.0,13409821.0,
1234.0,3864.0,1983.0,2045.0,13409825.0,
1234.0,3861.0,1982.0,2043.0,13409828.0,
1235.0,3864.0,1986.0,2041.0,13409832.0,
1232.0,3864.0,1986.0,2042.0,13409836.0,
1233.0,3863.0,1993.0,2039.0,13409840.0,
1234.0,3865.0,1994.0,2038.0,13409844.0,
1234.0,3862.0,1998.0,2035.0,13409848.0,
1234.0,3863.0,1999.0,2032.0,13409852.0,
1232.0,3861.0,2000.0,2029.0,13409855.0,
1232.0,3862.0,1999.0,2025.0,13409860.0,
1235.0,3866.0,1998.0,2026.0,13409864.0,
1235.0,3862.0,1995.0,2019.0,13409868.0,
1234.0,3865.0,1996.0,2014.0,13409871.0,
1233.0,3863.0,1992.0,2007.0,13409875.0,
1233.0,3866.0,1988.0,2002.0,13409879.0,
1235.0,3866.0,1988.0,1996.0,13409883.0,
1235.0,3862.0,1989.0,1988.0,13409887.0,
1233.0,3863.0,1989.0,1984.0,13409891.0,
1232.0,3863.0,1989.0,1979.0,13409895.0,
1233.0,3866.0,1987.0,1976.0,13409899.0,
1234.0,3863.0,1986.0,1968.0,13409903.0,
1234.0,3863.0,1983.0,1958.0,13409906.0,
1235.0,3862.0,1981.0,1955.0,13409910.0,
1233.0,3859.0,1980.0,1951.0,13409914.0,
1232.0,3860.0,1979.0,1943.0,13409918.0,
1233.0,3865.0,1973.0,1938.0,13409922.0,
1235.0,3864.0,1968.0,1931.0,13409926.0,
1235.0,3864.0,1963.0,1930.0,13409930.0,
1233.0,3863.0,1961.0,1921.0,13409934.0,
1232.0,3861.0,1958.0,1920.0,13409938.0,
1234.0,3863.0,1955.0,1918.0,13409942.0,
1235.0,3863.0,1955.0,1915.0,13409946.0,
1235.0,3861.0,1951.0,1911.0,13409950.0,
1233.0,3865.0,1948.0,1909.0,13409954.0,
1232.0,3860.0,1945.0,1905.0,13409958.0,
1234.0,3863.0,1940.0,1905.0,13409962.0,
1234.0,3862.0,1942.0,1903.0,13409966.0,
1235.0,3864.0,1943.0,1896.0,13409969.0,
1234.0,3863.0,1942.0,1896.0,13409973.0,
1233.0,3862.0,1940.0,1895.0,13409977.0,
1234.0,3863.0,1942.0,1893.0,13409981.0,
1233.0,3865.0,1943.0,1894.0,13409985.0,
1235.0,3866.0,1943.0,1890.0,13409989.0,
1234.0,3863.0,1947.0,1886.0,13409993.0,
1232.0,3862.0,1946.0,1884.0,13409997.0,
1233.0,3861.0,1945.0,1883.0,13410001.0,
1235.0,3863.0,1942.0,1879.0,13410005.0,
1234.0,3863.0,1941.0,1876.0,13410009.0,
1234.0,3865.0,1942.0,1872.0,13410013.0,
1234.0,3863.0,1943.0,1867.0,13410017.0,
1233.0,3865.0,1939.0,1869.0,13410021.0,
1235.0,3862.0,1943.0,1864.0,13410025.0,
1236.0,3863.0,1945.0,1865.0,13410028.0,
1235.0,3861.0,1949.0,1862.0,13410032.0,
1232.0,3861.0,1948.0,1865.0,13410036.0,
1234.0,3863.0,1948.0,1864.0,13410040.0,
1234.0,3862.0,1949.0,1864.0,13410044.0,
1234.0,3863.0,1951.0,1865.0,13410048.0,
1234.0,3863.0,1953.0,1867.0,13410052.0,
1233.0,3863.0,1956.0,1871.0,13410055.0,
1232.0,3864.0,1956.0,1870.0,13410059.0,
1234.0,3864.0,1957.0,1872.0,13410063.0,
1234.0,3864.0,1954.0,1871.0,13410067.0,
1234.0,3864.0,1956.0,1871.0,13410071.0,
1232.0,3862.0,1954.0,1869.0,13410075.0,
1233.0,3865.0,1951.0,1870.0,13410079.0,
1234.0,3862.0,1948.0,1871.0,13410083.0,
1234.0,3863.0,1945.0,1867.0,13410087.0,
1235.0,3864.0,1941.0,1867.0,13410090.0,
1234.0,3861.0,1935.0,1868.0,13410094.0,
1233.0,3863.0,1930.0,1863.0,13410098.0,
1233.0,3864.0,1927.0,1867.0,13410102.0,
1234.0,3861.0,1920.0,1860.0,13410106.0,
1235.0,3863.0,1919.0,1858.0,13410110.0,
1234.0,3863.0,1913.0,1858.0,13410114.0,
1232.0,3861.0,1909.0,1857.0,13410118.0,
1233.0,3864.0,1905.0,1856.0,13410122.0,
1235.0,3863.0,1901.0,1854.0,13410126.0,
1234.0,3864.0,1897.0,1849.0,13410130.0,
1234.0,3865.0,1896.0,1851.0,13410134.0,
1233.0,3860.0,1892.0,1846.0,13410138.0,
1234.0,3864.0,1892.0,1846.0,13410142.0,
1234.0,3864.0,1894.0,1847.0,13410145.0,
1235.0,3861.0,1893.0,1843.0,13410149.0,
1235.0,3864.0,1895.0,1847.0,13410153.0,
1234.0,3865.0,1895.0,1845.0,13410157.0,
1234.0,3863.0,1893.0,1843.0,13410161.0,
1234.0,3864.0,1890.0,1848.0,13410165.0,
1235.0,3864.0,1890.0,1843.0,13410169.0,
1235.0,3865.0,1886.0,1848.0,13410173.0,
1232.0,3864.0,1884.0,1846.0,13410177.0,
1233.0,3865.0,1883.0,1849.0,13410181.0,
1233.0,3864.0,1884.0,1848.0,13410185.0,
1235.0,3865.0,1884.0,1852.0,13410188.0,
1234.0,3860.0,1881.0,1852.0,13410192.0,
1233.0,3866.0,1885.0,1853.0,13410196.0,
1233.0,3865.0,1888.0,1852.0,13410200.0,
1234.0,3861.0,1889.0,1853.0,13410204.0,
1235.0,3865.0,1896.0,1855.0,13410208.0,
1235.0,3862.0,1901.0,1855.0,13410212.0,
1233.0,3865.0,1903.0,1863.0,13410215.0,
1233.0,3862.0,1906.0,1857.0,13410219.0,
1233.0,3861.0,1911.0,1858.0,13410223.0,
1235.0,3865.0,1914.0,1857.0,13410227.0,
1234.0,3861.0,1914.0,1857.0,13410231.0,
1234.0,3866.0,1916.0,1854.0,13410235.0,
1236.0,3863.0,1918.0,1853.0,13410239.0,
1234.0,3865.0,1917.0,1854.0,13410243.0,
1235.0,3865.0,1917.0,1850.0,13410246.0,
1235.0,3863.0,1916.0,1848.0,13410250.0,
1233.0,3863.0,1918.0,1844.0,13410254.0,
1233.0,3862.0,1919.0,1842.0,13410258.0,
1235.0,3864.0,1918.0,1844.0,13410262.0,
1235.0,3862.0,1920.0,1842.0,13410266.0,
1236.0,3866.0,1916.0,1840.0,13410270.0,
1234.0,3864.0,1916.0,1838.0,13410274.0,
1233.0,3862.0,1914.0,1836.0,13410278.0,
1233.0,3865.0,1915.0,1839.0,13410282.0,
1235.0,3861.0,1911.0,1834.0,13410286.0,
1235.0,3866.0,1906.0,1834.0,13410290.0,
1234.0,3864.0,1907.0,1836.0,13410294.0,
1233.0,3864.0,1904.0,1835.0,13410297.0,
1234.0,3864.0,1902.0,1836.0,13410302.0,
1236.0,3863.0,1904.0,1833.0,13410306.0,
1235.0,3864.0,1897.0,1836.0,13410310.0,
1234.0,3865.0,1898.0,1838.0,13410313.0,
1233.0,3864.0,1895.0,1842.0,13410317.0,
1233.0,3863.0,1893.0,1850.0,13410321.0,
1235.0,3867.0,1893.0,1855.0,13410325.0,
1236.0,3862.0,1889.0,1863.0,13410329.0,
1234.0,3864.0,1886.0,1874.0,13410332.0,
1232.0,3864.0,1888.0,1886.0,13410336.0,
1234.0,3865.0,1884.0,1899.0,13410340.0,
1234.0,3866.0,1883.0,1911.0,13410344.0,
1235.0,3863.0,1885.0,1921.0,13410348.0,
1236.0,3867.0,1884.0,1934.0,13410352.0,
1232.0,3861.0,1879.0,1947.0,13410356.0,
1234.0,3867.0,1880.0,1960.0,13410360.0,
1235.0,3863.0,1877.0,1972.0,13410363.0,
1235.0,3865.0,1877.0,1986.0,13410367.0,
1235.0,3863.0,1877.0,2004.0,13410371.0,
1233.0,3864.0,1877.0,2018.0,13410375.0,
1232.0,3865.0,1881.0,2031.0,13410379.0,
1234.0,3865.0,1881.0,2048.0,13410383.0,
1234.0,3862.0,1887.0,2059.0,13410387.0,
1235.0,3865.0,1891.0,2070.0,13410391.0,
1234.0,3862.0,1898.0,2081.0,13410395.0,
1233.0,3865.0,1902.0,2091.0,13410398.0,
1234.0,3863.0,1908.0,2097.0,13410402.0,
1235.0,3865.0,1912.0,2107.0,13410406.0,
1236.0,3863.0,1919.0,2116.0,13410410.0,
1237.0,3866.0,1924.0,2125.0,13410414.0,
1234.0,3862.0,1926.0,2131.0,13410418.0,
1234.0,3869.0,1934.0,2138.0,13410422.0,
1236.0,3862.0,1942.0,2148.0,13410426.0,
1236.0,3864.0,1947.0,2153.0,13410430.0,
1234.0,3863.0,1952.0,2157.0,13410434.0,
1233.0,3863.0,1953.0,2163.0,13410437.0,
1234.0,3863.0,1959.0,2167.0,13410441.0,
1235.0,3866.0,1961.0,2173.0,13410445.0,
1236.0,3864.0,1963.0,2175.0,13410449.0,
1235.0,3863.0,1968.0,2177.0,13410453.0,
1234.0,3865.0,1971.0,2182.0,13410457.0,
1234.0,3864.0,1972.0,2181.0,13410461.0,
1235.0,3864.0,1973.0,2184.0,13410465.0,
1235.0,3863.0,1975.0,2183.0,13410469.0,
1236.0,3862.0,1979.0,2185.0,13410473.0,
1234.0,3865.0,1977.0,2186.0,13410476.0,
1234.0,3864.0,1979.0,2184.0,13410480.0,
1235.0,3865.0,1976.0,2184.0,13410484.0,
1236.0,3866.0,1980.0,2183.0,13410488.0,
1235.0,3861.0,1981.0,2181.0,13410492.0,
1234.0,3865.0,1983.0,2179.0,13410496.0,
1234.0,3861.0,1989.0,2178.0,13410500.0,
1235.0,3864.0,1991.0,2177.0,13410503.0,
1236.0,3863.0,1997.0,2173.0,13410507.0,
1236.0,3865.0,2001.0,2173.0,13410511.0,
1234.0,3867.0,2004.0,2173.0,13410515.0,
1233.0,3862.0,2004.0,2166.0,13410519.0,
1235.0,3864.0,2004.0,2168.0,13410523.0,
1236.0,3863.0,2005.0,2163.0,13410527.0,
1235.0,3864.0,2005.0,2161.0,13410530.0,
1235.0,3860.0,2009.0,2151.0,13410534.0,
1233.0,3866.0,2013.0,2149.0,13410538.0,
1234.0,3863.0,2013.0,2141.0,13410542.0,
1236.0,3862.0,2013.0,2137.0,13410546.0,
1236.0,3866.0,2017.0,2133.0,13410550.0,
1235.0,3863.0,2013.0,2125.0,13410554.0,
1234.0,3865.0,2010.0,2122.0,13410558.0,
1234.0,3862.0,2010.0,2115.0,13410562.0,
1236.0,3863.0,2006.0,2111.0,13410565.0,
1236.0,3865.0,2006.0,2107.0,13410569.0,
1236.0,3863.0,2004.0,2099.0,13410573.0,
1233.0,3860.0,2006.0,2089.0,13410577.0,
1234.0,3867.0,2002.0,2084.0,13410581.0,
1235.0,3865.0,2006.0,2078.0,13410585.0,
1236.0,3864.0,2003.0,2077.0,13410589.0,
1236.0,3862.0,2005.0,2067.0,13410592.0,
1234.0,3868.0,2006.0,2064.0,13410596.0,
1234.0,3866.0,2004.0,2062.0,13410600.0,
1235.0,3865.0,2007.0,2066.0,13410604.0,
1236.0,3864.0,2006.0,2056.0,13410608.0,
1236.0,3866.0,2007.0,2057.0,13410612.0,
1233.0,3865.0,2009.0,2056.0,13410616.0,
1234.0,3862.0,2010.0,2055.0,13410620.0,
1235.0,3861.0,2012.0,2059.0,13410624.0,
1236.0,3862.0,2013.0,2059.0,13410628.0,
1236.0,3864.0,2014.0,2062.0,13410632.0,
1235.0,3861.0,2018.0,2061.0,13410636.0,
1233.0,3865.0,2017.0,2060.0,13410640.0,
1235.0,3860.0,2020.0,2062.0,13410643.0,
1236.0,3864.0,2017.0,2061.0,13410647.0,
1236.0,3864.0,2017.0,2062.0,13410651.0,
1236.0,3863.0,2016.0,2063.0,13410655.0,
1233.0,3862.0,2016.0,2061.0,13410659.0,
1235.0,3865.0,2014.0,2067.0,13410663.0,
1236.0,3861.0,2008.0,2067.0,13410667.0,
1236.0,3862.0,2004.0,2072.0,13410671.0,
1236.0,3862.0,2000.0,2068.0,13410675.0,
1234.0,3862.0,1992.0,2067.0,13410679.0,
1235.0,3863.0,1989.0,2069.0,13410683.0,
1236.0,3865.0,1986.0,2065.0,13410687.0,
1237.0,3861.0,1981.0,2061.0,13410691.0,
1235.0,3864.0,1973.0,2063.0,13410695.0,
1235.0,3864.0,1968.0,2062.0,13410699.0,
1236.0,3865.0,1966.0,2061.0,13410703.0,
1235.0,3864.0,1961.0,2057.0,13410707.0,
1236.0,3865.0,1959.0,2058.0,13410711.0,
1234.0,3859.0,1957.0,2056.0,13410715.0,
1234.0,3862.0,1954.0,2052.0,13410719.0,
1233.0,3862.0,1951.0,2049.0,13410723.0,
1236.0,3863.0,1951.0,2049.0,13410727.0,
1235.0,3865.0,1947.0,2047.0,13410731.0,
1235.0,3862.0,1946.0,2045.0,13410735.0,
1235.0,3859.0,1944.0,2040.0,13410738.0,
1235.0,3861.0,1940.0,2035.0,13410743.0,
1236.0,3865.0,1943.0,2033.0,13410747.0,
1236.0,3862.0,1943.0,2030.0,13410751.0,
1235.0,3864.0,1943.0,2024.0,13410755.0,
1235.0,3862.0,1941.0,2016.0,13410759.0,
1235.0,3863.0,1942.0,2014.0,13410763.0,
1237.0,3863.0,1941.0,2010.0,13410767.0,
1236.0,3866.0,1940.0,2007.0,13410771.0,
1235.0,3862.0,1938.0,1999.0,13410774.0,
1234.0,3861.0,1935.0,1997.0,13410778.0,
1235.0,3861.0,1934.0,1992.0,13410782.0,
1237.0,3865.0,1932.0,1988.0,13410786.0,
1236.0,3861.0,1928.0,1983.0,13410790.0,
1235.0,3864.0,1926.0,1979.0,13410794.0,
1234.0,3859.0,1923.0,1974.0,13410798.0,
1235.0,3863.0,1923.0,1966.0,13410802.0,
1235.0,3862.0,1923.0,1963.0,13410806.0,
1237.0,3864.0,1922.0,1959.0,13410810.0,
1235.0,3860.0,1920.0,1953.0,13410814.0,
1234.0,3864.0,1921.0,1949.0,13410818.0,
1235.0,3861.0,1921.0,1946.0,13410821.0,
1237.0,3863.0,1921.0,1941.0,13410825.0,
1236.0,3863.0,1919.0,1934.0,13410829.0,
1236.0,3863.0,1922.0,1934.0,13410833.0,
1234.0,3862.0,1918.0,1929.0,13410837.0,
1235.0,3863.0,1921.0,1925.0,13410841.0,
1235.0,3863.0,1921.0,1921.0,13410845.0,
1236.0,3864.0,1924.0,1918.0,13410849.0,
1236.0,3865.0,1921.0,1915.0,13410852.0,
1235.0,3861.0,1922.0,1908.0,13410856.0,
1234.0,3864.0,1923.0,1909.0,13410860.0,
1235.0,3863.0,1921.0,1906.0,13410864.0,
1236.0,3861.0,1921.0,1904.0,13410868.0,
1236.0,3862.0,1920.0,1903.0,13410872.0,
1235.0,3864.0,1923.0,1896.0,13410877.0,
1235.0,3860.0,1923.0,1894.0,13410881.0,
1238.0,3862.0,1921.0,1892.0,13410885.0,
1237.0,3862.0,1923.0,1886.0,13410889.0,
1237.0,3864.0,1922.0,1885.0,13410892.0,
1234.0,3867.0,1921.0,1891.0,13410896.0,
1234.0,3864.0,1922.0,1883.0,13410900.0,
1236.0,3858.0,1924.0,1879.0,13410904.0,
1237.0,3862.0,1924.0,1878.0,13410908.0,
1236.0,3860.0,1925.0,1875.0,13410912.0,
1234.0,3863.0,1929.0,1877.0,13410916.0,
1235.0,3862.0,1935.0,1871.0,13410920.0,
1235.0,3863.0,1934.0,1869.0,13410923.0,
1236.0,3860.0,1937.0,1866.0,13410927.0,
1237.0,3864.0,1935.0,1866.0,13410931.0,
1234.0,3860.0,1933.0,1864.0,13410935.0,
1234.0,3862.0,1926.0,1864.0,13410939.0,
1235.0,3864.0,1929.0,1866.0,13410943.0,
1236.0,3860.0,1928.0,1863.0,13410947.0,
1237.0,3862.0,1924.0,1867.0,13410951.0,
1236.0,3861.0,1924.0,1865.0,13410955.0,
1234.0,3862.0,1924.0,1865.0,13410959.0,
1236.0,3862.0,1921.0,1868.0,13410963.0,
1236.0,3861.0,1923.0,1866.0,13410967.0,
1237.0,3865.0,1922.0,1871.0,13410970.0,
1236.0,3861.0,1921.0,1867.0,13410974.0,
1234.0,3864.0,1919.0,1866.0,13410978.0,
1236.0,3862.0,1921.0,1868.0,13410982.0,
1238.0,3862.0,1922.0,1868.0,13410986.0,
1236.0,3862.0,1925.0,1867.0,13410990.0,
1236.0,3863.0,1925.0,1868.0,13410994.0,
1234.0,3863.0,1927.0,1870.0,13410997.0,
1235.0,3864.0,1925.0,1872.0,13411001.0,
1236.0,3863.0,1928.0,1873.0,13411005.0,
1237.0,3861.0,1927.0,1870.0,13411009.0,
1237.0,3861.0,1927.0,1871.0,13411013.0,
1234.0,3860.0,1928.0,1871.0,13411017.0,
1234.0,3864.0,1928.0,1875.0,13411021.0,
1236.0,3862.0,1930.0,1872.0,13411025.0,
1237.0,3864.0,1927.0,1870.0,13411029.0,
1236.0,3861.0,1929.0,1872.0,13411033.0,
1235.0,3864.0,1925.0,1871.0,13411037.0,
1234.0,3859.0,1922.0,1867.0,13411040.0,
1235.0,3865.0,1921.0,1871.0,13411044.0,
1236.0,3862.0,1920.0,1867.0,13411048.0,
1236.0,3862.0,1917.0,1868.0,13411052.0,
1235.0,3861.0,1918.0,1866.0,13411056.0,
1235.0,3864.0,1913.0,1866.0,13411060.0,
1236.0,3864.0,1914.0,1868.0,13411064.0,
1236.0,3866.0,1916.0,1867.0,13411068.0,
1237.0,3864.0,1919.0,1866.0,13411072.0,
1235.0,3862.0,1917.0,1864.0,13411076.0,
1234.0,3863.0,1917.0,1865.0,13411080.0,
1237.0,3861.0,1916.0,1863.0,13411084.0,
1237.0,3862.0,1918.0,1865.0,13411088.0,
1238.0,3864.0,1916.0,1861.0,13411091.0,
1235.0,3861.0,1918.0,1860.0,13411095.0,
1235.0,3863.0,1921.0,1862.0,13411099.0,
1236.0,3862.0,1921.0,1863.0,13411103.0,
1236.0,3861.0,1922.0,1863.0,13411107.0,
1236.0,3862.0,1922.0,1864.0,13411111.0,
1236.0,3863.0,1924.0,1865.0,13411115.0,
1234.0,3860.0,1919.0,1864.0,13411119.0,
1235.0,3863.0,1920.0,1865.0,13411122.0,
1236.0,3861.0,1919.0,1863.0,13411126.0,
1237.0,3865.0,1913.0,1863.0,13411130.0,
1236.0,3864.0,1914.0,1865.0,13411134.0,
1235.0,3863.0,1913.0,1863.0,13411138.0,
1236.0,3864.0,1910.0,1865.0,13411142.0,
1236.0,3860.0,1905.0,1857.0,13411146.0,
1237.0,3863.0,1902.0,1861.0,13411149.0,
1236.0,3862.0,1899.0,1859.0,13411153.0,
1233.0,3858.0,1894.0,1857.0,13411157.0,
1236.0,3864.0,1890.0,1857.0,13411161.0,
1236.0,3862.0,1889.0,1852.0,13411165.0,
1237.0,3863.0,1883.0,1854.0,13411169.0,
1236.0,3861.0,1881.0,1852.0,13411173.0,
1234.0,3864.0,1877.0,1855.0,13411177.0,
1235.0,3862.0,1876.0,1857.0,13411181.0,
1236.0,3865.0,1874.0,1867.0,13411185.0,
1238.0,3862.0,1873.0,1871.0,13411189.0,
1237.0,3863.0,1873.0,1879.0,13411193.0,
1234.0,3860.0,1875.0,1887.0,13411196.0,
1235.0,3862.0,1880.0,1895.0,13411200.0,
1236.0,3860.0,1880.0,1908.0,13411204.0,
1237.0,3862.0,1883.0,1919.0,13411208.0,
1237.0,3861.0,1885.0,1932.0,13411212.0,
1235.0,3862.0,1888.0,1945.0,13411216.0,
1235.0,3865.0,1889.0,1961.0,13411220.0,
1235.0,3863.0,1892.0,1972.0,13411224.0,
1238.0,3861.0,1891.0,1984.0,13411228.0,
1236.0,3862.0,1892.0,1998.0,13411232.0,
1235.0,3861.0,1892.0,2015.0,13411236.0,
1236.0,3862.0,1892.0,2023.0,13411239.0,
1236.0,3864.0,1892.0,2039.0,13411243.0,
1237.0,3865.0,1892.0,2051.0,13411248.0,
1236.0,3860.0,1894.0,2063.0,13411252.0,
1236.0,3864.0,1896.0,2078.0,13411256.0,
1235.0,3860.0,1898.0,2087.0,13411259.0,
1236.0,3862.0,1898.0,2101.0,13411263.0,
1237.0,3861.0,1900.0,2117.0,13411267.0,
1238.0,3864.0,1902.0,2122.0,13411271.0,
1236.0,3859.0,1908.0,2133.0,13411275.0,
1235.0,3863.0,1913.0,2144.0,13411279.0,
1237.0,3863.0,1916.0,2149.0,13411283.0,
1237.0,3859.0,1921.0,2154.0,13411287.0,
1236.0,3861.0,1924.0,2160.0,13411291.0,
1237.0,3860.0,1925.0,2165.0,13411295.0,
1235.0,3863.0,1928.0,2171.0,13411299.0,
1236.0,3860.0,1929.0,2175.0,13411303.0,
1238.0,3864.0,1927.0,2180.0,13411306.0,
1238.0,3864.0,1927.0,2186.0,13411311.0,
1236.0,3862.0,1930.0,2186.0,13411314.0,
1236.0,3862.0,1932.0,2188.0,13411318.0,
1236.0,3862.0,1936.0,2187.0,13411322.0,
1238.0,3861.0,1939.0,2188.0,13411326.0,
1237.0,3863.0,1939.0,2189.0,13411330.0,
1237.0,3863.0,1943.0,2190.0,13411337.0,
1236.0,3862.0,1945.0,2188.0,13411341.0,
1236.0,3861.0,1948.0,2188.0,13411345.0,
1237.0,3862.0,1947.0,2190.0,13411349.0,
1236.0,3864.0,1948.0,2190.0,13411353.0,
1236.0,3863.0,1953.0,2190.0,13411357.0,
1236.0,3864.0,1956.0,2189.0,13411361.0,
1236.0,3862.0,1959.0,2186.0,13411365.0,
1238.0,3863.0,1963.0,2185.0,13411369.0,
1238.0,3861.0,1967.0,2185.0,13411372.0,
1236.0,3862.0,1972.0,2180.0,13411376.0,
1237.0,3863.0,1976.0,2179.0,13411380.0,
1236.0,3863.0,1981.0,2174.0,13411384.0,
1238.0,3863.0,1983.0,2174.0,13411388.0,
1239.0,3864.0,1988.0,2170.0,13411392.0,
1235.0,3864.0,1992.0,2167.0,13411396.0,
1235.0,3862.0,1994.0,2157.0,13411400.0,
1236.0,3863.0,1999.0,2161.0,13411403.0,
1237.0,3861.0,1998.0,2155.0,13411407.0,
1239.0,3864.0,2002.0,2153.0,13411411.0,
1237.0,3861.0,2005.0,2150.0,13411415.0,
1236.0,3860.0,2012.0,2148.0,13411419.0,
1237.0,3863.0,2010.0,2145.0,13411423.0,
1238.0,3862.0,2011.0,2143.0,13411427.0,
1238.0,3864.0,2013.0,2138.0,13411431.0,
1236.0,3860.0,2015.0,2140.0,13411435.0,
1236.0,3863.0,2013.0,2137.0,13411439.0,
1235.0,3861.0,2015.0,2131.0,13411443.0,
1239.0,3863.0,2015.0,2130.0,13411446.0,
1238.0,3862.0,2015.0,2125.0,13411450.0,
1237.0,3863.0,2015.0,2119.0,13411454.0,
1236.0,3863.0,2011.0,2120.0,13411458.0,
1236.0,3865.0,2009.0,2115.0,13411462.0,
1238.0,3862.0,2009.0,2110.0,13411466.0,
1239.0,3861.0,2010.0,2107.0,13411470.0,
1237.0,3861.0,2010.0,2104.0,13411474.0,
1237.0,3863.0,2011.0,2103.0,13411478.0,
1237.0,3860.0,2010.0,2097.0,13411481.0,
1238.0,3864.0,2011.0,2093.0,13411485.0,
1239.0,3860.0,2010.0,2091.0,13411489.0,
1237.0,3861.0,2012.0,2091.0,13411493.0,
1235.0,3863.0,2013.0,2088.0,13411497.0,
1236.0,3861.0,2014.0,2082.0,13411501.0,
1238.0,3863.0,2017.0,2083.0,13411505.0,
1238.0,3863.0,2013.0,2080.0,13411509.0,
1238.0,3864.0,2014.0,2076.0,13411513.0,
1236.0,3860.0,2014.0,2077.0,13411516.0,
1237.0,3863.0,2015.0,2075.0,13411520.0,
1237.0,3861.0,2016.0,2071.0,13411524.0,
1238.0,3864.0,2012.0,2065.0,13411528.0,
1237.0,3863.0,2013.0,2061.0,13411532.0,
1237.0,3862.0,2015.0,2060.0,13411536.0,
1236.0,3864.0,2011.0,2058.0,13411540.0,
1237.0,3859.0,2008.0,2056.0,13411544.0,
1238.0,3864.0,2006.0,2051.0,13411548.0,
1238.0,3862.0,2003.0,2048.0,13411552.0,
1236.0,3862.0,1999.0,2046.0,13411556.0,
1237.0,3862.0,1995.0,2041.0,13411560.0,
1237.0,3865.0,1993.0,2040.0,13411564.0,
1239.0,3860.0,1991.0,2040.0,13411568.0,
1238.0,3862.0,1991.0,2038.0,13411572.0,
1236.0,3862.0,1993.0,2039.0,13411576.0,
1236.0,3863.0,1989.0,2035.0,13411579.0,
1237.0,3859.0,1990.0,2033.0,13411583.0,
1239.0,3864.0,1988.0,2031.0,13411587.0,
1238.0,3864.0,1988.0,2034.0,13411591.0,
1237.0,3862.0,1990.0,2031.0,13411595.0,
1236.0,3864.0,1991.0,2031.0,13411599.0,
1237.0,3863.0,1992.0,2026.0,13411603.0,
1237.0,3865.0,1994.0,2026.0,13411606.0,
1239.0,3861.0,1999.0,2022.0,13411610.0,
1236.0,3861.0,1997.0,2023.0,13411614.0,
1236.0,3863.0,1998.0,2023.0,13411619.0,
1233.0,3861.0,2003.0,2020.0,13411623.0,
1238.0,3864.0,2005.0,2018.0,13411627.0,
1238.0,3861.0,2009.0,2015.0,13411631.0,
1237.0,3864.0,2009.0,2015.0,13411635.0,
1236.0,3859.0,2009.0,2010.0,13411639.0,
1237.0,3859.0,2009.0,2009.0,13411643.0,
1238.0,3862.0,2008.0,2007.0,13411647.0,
1238.0,3860.0,2005.0,2004.0,13411651.0,
1237.0,3861.0,2002.0,2002.0,13411655.0,
1236.0,3862.0,1998.0,1996.0,13411660.0,
1236.0,3864.0,1993.0,1995.0,13411663.0,
1238.0,3861.0,1989.0,1990.0,13411667.0,
1238.0,3860.0,1989.0,1984.0,13411671.0,
1237.0,3862.0,1986.0,1979.0,13411675.0,
1236.0,3862.0,1985.0,1979.0,13411679.0,
1236.0,3863.0,1983.0,1972.0,13411683.0,
1239.0,3864.0,1979.0,1969.0,13411687.0,
1238.0,3861.0,1977.0,1967.0,13411691.0,
1237.0,3864.0,1973.0,1965.0,13411695.0,
1236.0,3863.0,1975.0,1960.0,13411699.0,
1236.0,3861.0,1976.0,1959.0,13411703.0,
1238.0,3862.0,1976.0,1958.0,13411707.0,
1238.0,3864.0,1976.0,1960.0,13411710.0,
1237.0,3863.0,1979.0,1959.0,13411714.0,
1236.0,3862.0,1980.0,1956.0,13411718.0,
1238.0,3861.0,1985.0,1958.0,13411722.0,
1238.0,3860.0,1984.0,1953.0,13411726.0,
1239.0,3861.0,1987.0,1949.0,13411730.0,
1238.0,3861.0,1987.0,1947.0,13411734.0,
1237.0,3863.0,1985.0,1945.0,13411738.0,
1237.0,3862.0,1983.0,1941.0,13411742.0,
1238.0,3861.0,1980.0,1933.0,13411746.0,
1237.0,3861.0,1977.0,1928.0,13411750.0,
1238.0,3864.0,1974.0,1926.0,13411754.0,
1236.0,3862.0,1973.0,1921.0,13411758.0,
1236.0,3864.0,1967.0,1923.0,13411762.0,
1238.0,3864.0,1969.0,1917.0,13411765.0,
1239.0,3860.0,1965.0,1913.0,13411769.0,
1238.0,3860.0,1966.0,1908.0,13411773.0,
1237.0,3861.0,1967.0,1907.0,13411777.0,
1236.0,3864.0,1966.0,1905.0,13411781.0,
1237.0,3862.0,1965.0,1889.0,13411785.0,
1239.0,3861.0,1963.0,1903.0,13411789.0,
1238.0,3862.0,1965.0,1899.0,13411793.0,
1237.0,3863.0,1964.0,1901.0,13411796.0,
1236.0,3862.0,1966.0,1903.0,13411800.0,
1238.0,3861.0,1969.0,1899.0,13411804.0,
1239.0,3861.0,1964.0,1898.0,13411808.0,
1238.0,3863.0,1964.0,1898.0,13411812.0,
1237.0,3860.0,1967.0,1896.0,13411816.0,
1237.0,3860.0,1963.0,1898.0,13411820.0,
1237.0,3861.0,1966.0,1897.0,13411824.0,
1238.0,3863.0,1964.0,1899.0,13411828.0,
1239.0,3859.0,1967.0,1898.0,13411831.0,
1237.0,3859.0,1966.0,1897.0,13411835.0,
1237.0,3863.0,1966.0,1896.0,13411839.0,
1238.0,3861.0,1968.0,1894.0,13411843.0,
1238.0,3861.0,1967.0,1900.0,13411847.0,
1238.0,3862.0,1967.0,1900.0,13411851.0,
1238.0,3861.0,1966.0,1901.0,13411855.0,
1235.0,3863.0,1966.0,1899.0,13411859.0,
1237.0,3863.0,1968.0,1906.0,13411863.0,
1238.0,3860.0,1966.0,1904.0,13411867.0,
1238.0,3865.0,1970.0,1908.0,13411871.0,
1237.0,3863.0,1967.0,1908.0,13411875.0,
1236.0,3864.0,1968.0,1906.0,13411879.0,
1236.0,3859.0,1965.0,1905.0,13411883.0,
1239.0,3862.0,1962.0,1904.0,13411887.0,
1238.0,3862.0,1967.0,1902.0,13411891.0,
1237.0,3864.0,1969.0,1905.0,13411895.0,
1236.0,3860.0,1971.0,1903.0,13411898.0,
1236.0,3859.0,1973.0,1901.0,13411902.0,
1238.0,3860.0,1975.0,1898.0,13411906.0,
1238.0,3863.0,1977.0,1899.0,13411910.0,
1238.0,3858.0,1978.0,1895.0,13411914.0,
1236.0,3860.0,1978.0,1895.0,13411918.0,
1237.0,3859.0,1977.0,1891.0,13411922.0,
1238.0,3862.0,1979.0,1894.0,13411926.0,
1239.0,3862.0,1983.0,1889.0,13411929.0,
1237.0,3862.0,1982.0,1885.0,13411933.0,
1236.0,3864.0,1985.0,1884.0,13411937.0,
1237.0,3861.0,1984.0,1880.0,13411941.0,
1237.0,3860.0,1988.0,1879.0,13411945.0,
1239.0,3866.0,1986.0,1878.0,13411949.0,
1238.0,3861.0,1986.0,1875.0,13411953.0,
1237.0,3863.0,1981.0,1871.0,13411957.0,
1236.0,3861.0,1979.0,1870.0,13411960.0,
1238.0,3863.0,1972.0,1869.0,13411964.0,
1237.0,3861.0,1966.0,1869.0,13411968.0,
1238.0,3864.0,1961.0,1866.0,13411972.0,
1238.0,3858.0,1955.0,1865.0,13411976.0,
1236.0,3864.0,1949.0,1864.0,13411980.0,
1238.0,3861.0,1947.0,1860.0,13411984.0,
1239.0,3863.0,1939.0,1860.0,13411988.0,
1238.0,3860.0,1938.0,1856.0,13411992.0,
1237.0,3861.0,1930.0,1856.0,13411996.0,
1235.0,3862.0,1926.0,1856.0,13412000.0,
1238.0,3861.0,1926.0,1855.0,13412004.0,
1238.0,3862.0,1927.0,1866.0,13412008.0,
1238.0,3860.0,1926.0,1857.0,13412012.0,
1237.0,3863.0,1926.0,1860.0,13412017.0,
1237.0,3862.0,1928.0,1863.0,13412021.0,
1238.0,3862.0,1927.0,1865.0,13412024.0,
1239.0,3859.0,1928.0,1863.0,13412028.0,
1239.0,3863.0,1926.0,1868.0,13412032.0,
1235.0,3860.0,1928.0,1871.0,13412036.0,
1236.0,3864.0,1926.0,1873.0,13412040.0,
1237.0,3860.0,1928.0,1876.0,13412044.0,
1237.0,3865.0,1930.0,1882.0,13412048.0,
1238.0,3861.0,1933.0,1889.0,13412052.0,
1237.0,3863.0,1927.0,1898.0,13412055.0,
1235.0,3859.0,1929.0,1903.0,13412059.0,
1237.0,3863.0,1929.0,1918.0,13412063.0,
1237.0,3862.0,1929.0,1928.0,13412067.0,
1239.0,3861.0,1930.0,1939.0,13412071.0,
1237.0,3862.0,1929.0,1953.0,13412075.0,
1235.0,3864.0,1924.0,1962.0,13412079.0,
1236.0,3861.0,1929.0,1976.0,13412083.0,
1239.0,3862.0,1928.0,1990.0,13412087.0,
1239.0,3860.0,1931.0,2004.0,13412091.0,
1237.0,3861.0,1928.0,2021.0,13412095.0,
1237.0,3861.0,1931.0,2029.0,13412099.0,
1237.0,3864.0,1930.0,2045.0,13412103.0,
1238.0,3861.0,1931.0,2061.0,13412106.0,
1239.0,3861.0,1932.0,2074.0,13412110.0,
1238.0,3859.0,1934.0,2085.0,13412114.0,
1237.0,3862.0,1935.0,2102.0,13412119.0,
1237.0,3862.0,1937.0,2112.0,13412123.0,
1238.0,3862.0,1943.0,2124.0,13412127.0,
1239.0,3863.0,1944.0,2131.0,13412131.0,
1237.0,3861.0,1948.0,2143.0,13412135.0,
1238.0,3862.0,1952.0,2150.0,13412139.0,
1238.0,3860.0,1955.0,2159.0,13412142.0,
1239.0,3860.0,1958.0,2165.0,13412146.0,
1240.0,3861.0,1962.0,2174.0,13412150.0,
1239.0,3862.0,1965.0,2178.0,13412154.0,
1236.0,3857.0,1972.0,2186.0,13412158.0,
1237.0,3862.0,1974.0,2196.0,13412162.0,
1238.0,3860.0,1980.0,2196.0,13412166.0,
1238.0,3859.0,1985.0,2202.0,13412170.0,
1239.0,3859.0,1988.0,2204.0,13412174.0,
1237.0,3862.0,1992.0,2210.0,13412178.0,
1237.0,3860.0,1994.0,2209.0,13412181.0,
1239.0,3864.0,1997.0,2217.0,13412185.0,
1239.0,3863.0,1997.0,2216.0,13412189.0,
1239.0,3863.0,1998.0,2221.0,13412193.0,
1236.0,3862.0,2003.0,2220.0,13412197.0,
1237.0,3864.0,2003.0,2221.0,13412201.0,
1238.0,3860.0,2013.0,2219.0,13412205.0,
1239.0,3864.0,2017.0,2220.0,13412209.0,
1238.0,3860.0,2024.0,2223.0,13412213.0,
1237.0,3862.0,2031.0,2220.0,13412216.0,
1238.0,3859.0,2035.0,2220.0,13412220.0,
1238.0,3861.0,2040.0,2219.0,13412224.0,
1239.0,3864.0,2042.0,2220.0,13412228.0,
1239.0,3858.0,2043.0,2222.0,13412232.0,
1237.0,3864.0,2045.0,2222.0,13412236.0,
1237.0,3861.0,2047.0,2217.0,13412239.0,
1238.0,3860.0,2047.0,2217.0,13412243.0,
1239.0,3866.0,2046.0,2217.0,13412247.0,
1239.0,3858.0,2046.0,2211.0,13412251.0,
1238.0,3859.0,2045.0,2208.0,13412255.0,
1238.0,3860.0,2045.0,2199.0,13412259.0,
1239.0,3862.0,2047.0,2201.0,13412263.0,
1239.0,3860.0,2048.0,2191.0,13412267.0,
1240.0,3859.0,2050.0,2186.0,13412271.0,
1238.0,3859.0,2051.0,2179.0,13412274.0,
1237.0,3860.0,2053.0,2174.0,13412278.0,
1238.0,3859.0,2054.0,2172.0,13412282.0,
1239.0,3860.0,2057.0,2159.0,13412286.0,
1239.0,3862.0,2057.0,2148.0,13412290.0,
1238.0,3859.0,2056.0,2138.0,13412294.0,
1237.0,3861.0,2054.0,2131.0,13412298.0,
1236.0,3861.0,2052.0,2121.0,13412302.0,
1239.0,3858.0,2054.0,2115.0,13412305.0,
1240.0,3864.0,2050.0,2107.0,13412309.0,
1239.0,3860.0,2050.0,2103.0,13412313.0,
1237.0,3861.0,2050.0,2096.0,13412317.0,
1238.0,3861.0,2051.0,2090.0,13412321.0,
1238.0,3861.0,2051.0,2089.0,13412325.0,
1240.0,3861.0,2051.0,2085.0,13412329.0,
1238.0,3860.0,2049.0,2080.0,13412334.0,
1237.0,3861.0,2052.0,2074.0,13412338.0,
1237.0,3860.0,2050.0,2068.0,13412342.0,
1239.0,3859.0,2047.0,2068.0,13412346.0,
1239.0,3859.0,2045.0,2065.0,13412350.0,
1238.0,3865.0,2044.0,2063.0,13412354.0,
1237.0,3862.0,2039.0,2063.0,13412358.0,
1237.0,3860.0,2037.0,2056.0,13412362.0,
1238.0,3863.0,2033.0,2059.0,13412366.0,
1238.0,3860.0,2035.0,2059.0,13412370.0,
1238.0,3860.0,2030.0,2060.0,13412373.0,
1238.0,3860.0,2030.0,2063.0,13412377.0,
1237.0,3863.0,2028.0,2065.0,13412381.0,
1238.0,3863.0,2028.0,2070.0,13412385.0,
1240.0,3863.0,2026.0,2069.0,13412389.0,
1239.0,3861.0,2024.0,2072.0,13412393.0,
1237.0,3863.0,2024.0,2076.0,13412397.0,
1241.0,3859.0,2021.0,2076.0,13412401.0,
1238.0,3862.0,2017.0,2078.0,13412404.0,
1239.0,3862.0,2016.0,2075.0,13412408.0,
1240.0,3859.0,2017.0,2076.0,13412412.0,
1237.0,3861.0,2014.0,2077.0,13412416.0,
1238.0,3861.0,2013.0,2075.0,13412420.0,
1238.0,3863.0,2011.0,2075.0,13412425.0,
1239.0,3861.0,2012.0,2073.0,13412429.0,
1239.0,3861.0,2009.0,2075.0,13412433.0,
1237.0,3859.0,2008.0,2075.0,13412437.0,
1237.0,3864.0,2007.0,2076.0,13412440.0,
1238.0,3860.0,2003.0,2070.0,13412444.0,
1239.0,3862.0,2005.0,2072.0,13412448.0,
1239.0,3861.0,2005.0,2071.0,13412452.0,
1237.0,3861.0,2002.0,2066.0,13412456.0,
1237.0,3861.0,2004.0,2061.0,13412460.0,
1239.0,3861.0,2006.0,2059.0,13412464.0,
1239.0,3862.0,2006.0,2053.0,13412468.0,
1239.0,3861.0,2009.0,2051.0,13412472.0,
1238.0,3858.0,2012.0,2046.0,13412476.0,
1237.0,3862.0,2015.0,2045.0,13412480.0,
1238.0,3861.0,2018.0,2042.0,13412483.0,
1239.0,3861.0,2023.0,2038.0,13412487.0,
1239.0,3860.0,2025.0,2040.0,13412491.0,
1238.0,3861.0,2027.0,2035.0,13412495.0,
1238.0,3861.0,2029.0,2033.0,13412499.0,
1237.0,3861.0,2028.0,2030.0,13412503.0,
1239.0,3860.0,2026.0,2028.0,13412507.0,
1240.0,3860.0,2025.0,2026.0,13412510.0,
1238.0,3859.0,2025.0,2026.0,13412514.0,
1236.0,3861.0,2021.0,2024.0,13412518.0,
1238.0,3863.0,2022.0,2021.0,13412522.0,
1239.0,3859.0,2018.0,2018.0,13412526.0,
1240.0,3861.0,2018.0,2015.0,13412530.0,
1239.0,3861.0,2016.0,2011.0,13412534.0,
1237.0,3859.0,2012.0,2008.0,13412538.0,
1237.0,3858.0,2013.0,2004.0,13412541.0,
1239.0,3863.0,2010.0,2002.0,13412545.0,
1239.0,3864.0,2004.0,1999.0,13412549.0,
1240.0,3862.0,2004.0,1997.0,13412553.0,
1237.0,3858.0,2000.0,1992.0,13412557.0,
1238.0,3862.0,1994.0,1991.0,13412561.0,
1238.0,3863.0,1991.0,1984.0,13412565.0,
1239.0,3863.0,1985.0,1982.0,13412569.0,
1239.0,3862.0,1977.0,1980.0,13412572.0,
1237.0,3859.0,1970.0,1975.0,13412576.0,
1238.0,3860.0,1965.0,1971.0,13412580.0,
1239.0,3863.0,1956.0,1970.0,13412584.0,
1239.0,3861.0,1949.0,1962.0,13412588.0,
1239.0,3861.0,1941.0,1957.0,13412592.0,
1238.0,3861.0,1932.0,1952.0,13412596.0,
1237.0,3865.0,1927.0,1945.0,13412600.0,
1238.0,3863.0,1924.0,1943.0,13412603.0,
1239.0,3861.0,1916.0,1931.0,13412607.0,
1240.0,3860.0,1907.0,1933.0,13412611.0,
1238.0,3862.0,1900.0,1928.0,13412615.0,
1237.0,3857.0,1894.0,1922.0,13412619.0,
1238.0,3864.0,1889.0,1919.0,13412623.0,
1240.0,3861.0,1884.0,1914.0,13412627.0,
1239.0,3861.0,1878.0,1913.0,13412631.0,
1238.0,3859.0,1875.0,1909.0,13412635.0,
1237.0,3864.0,1874.0,1909.0,13412638.0,
1238.0,3861.0,1871.0,1905.0,13412642.0,
1239.0,3865.0,1868.0,1909.0,13412646.0,
1240.0,3859.0,1865.0,1906.0,13412650.0,
1239.0,3861.0,1864.0,1910.0,13412654.0,
1238.0,3860.0,1865.0,1909.0,13412658.0,
1238.0,3862.0,1866.0,1912.0,13412662.0,
1238.0,3861.0,1866.0,1913.0,13412665.0,
1240.0,3861.0,1868.0,1915.0,13412669.0,
1239.0,3862.0,1870.0,1917.0,13412673.0,
1237.0,3859.0,1872.0,1919.0,13412677.0,
1238.0,3864.0,1877.0,1919.0,13412681.0,
1239.0,3862.0,1875.0,1918.0,13412685.0,
1239.0,3863.0,1878.0,1919.0,13412689.0,
1239.0,3860.0,1879.0,1919.0,13412693.0,
1238.0,3861.0,1878.0,1920.0,13412696.0,
1238.0,3861.0,1878.0,1916.0,13412700.0,
1238.0,3862.0,1878.0,1922.0,13412704.0,
1239.0,3860.0,1881.0,1922.0,13412708.0,
1239.0,3860.0,1883.0,1919.0,13412712.0,
1238.0,3862.0,1886.0,1924.0,13412716.0,
1236.0,3861.0,1889.0,1920.0,13412720.0,
1238.0,3864.0,1890.0,1922.0,13412724.0,
1239.0,3860.0,1895.0,1917.0,13412728.0,
1239.0,3862.0,1898.0,1920.0,13412731.0,
1238.0,3863.0,1901.0,1920.0,13412735.0,
1237.0,3861.0,1906.0,1918.0,13412739.0,
1239.0,3863.0,1906.0,1918.0,13412743.0,
1239.0,3860.0,1909.0,1917.0,13412747.0,
1239.0,3862.0,1914.0,1914.0,13412751.0,
1237.0,3861.0,1914.0,1915.0,13412755.0,
1237.0,3864.0,1917.0,1911.0,13412758.0,
1237.0,3863.0,1919.0,1908.0,13412762.0,
1239.0,3861.0,1918.0,1907.0,13412766.0,
1239.0,3860.0,1921.0,1907.0,13412770.0,
1238.0,3861.0,1922.0,1907.0,13412774.0,
1238.0,3861.0,1925.0,1906.0,13412778.0,
1237.0,3862.0,1926.0,1910.0,13412782.0,
1240.0,3861.0,1923.0,1908.0,13412786.0,
1241.0,3863.0,1921.0,1916.0,13412790.0,
1239.0,3861.0,1918.0,1915.0,13412794.0,
1237.0,3863.0,1912.0,1916.0,13412798.0,
1238.0,3862.0,1908.0,1916.0,13412802.0,
1239.0,3864.0,1903.0,1918.0,13412806.0,
1239.0,3862.0,1898.0,1918.0,13412809.0,
1237.0,3863.0,1894.0,1916.0,13412813.0,
1239.0,3863.0,1892.0,1918.0,13412817.0,
1238.0,3863.0,1886.0,1921.0,13412821.0,
1239.0,3860.0,1888.0,1921.0,13412825.0,
1240.0,3865.0,1889.0,1924.0,13412829.0,
1239.0,3861.0,1888.0,1925.0,13412833.0,
1238.0,3861.0,1890.0,1923.0,13412837.0,
1238.0,3863.0,1893.0,1923.0,13412840.0,
1239.0,3860.0,1893.0,1923.0,13412844.0,
1240.0,3861.0,1895.0,1920.0,13412848.0,
1239.0,3863.0,1889.0,1918.0,13412852.0,
1237.0,3862.0,1890.0,1911.0,13412856.0,
1238.0,3862.0,1890.0,1910.0,13412860.0,
1239.0,3863.0,1885.0,1905.0,13412864.0,
1240.0,3862.0,1885.0,1902.0,13412868.0,
1241.0,3862.0,1883.0,1899.0,13412871.0,
1238.0,3859.0,1880.0,1897.0,13412875.0,
1237.0,3857.0,1878.0,1894.0,13412879.0,
1239.0,3863.0,1878.0,1895.0,13412883.0,
1241.0,3860.0,1876.0,1891.0,13412887.0,
1241.0,3861.0,1877.0,1888.0,13412891.0,
1240.0,3861.0,1875.0,1886.0,13412895.0,
1238.0,3864.0,1883.0,1889.0,13412898.0,
1238.0,3864.0,1886.0,1884.0,13412902.0,
1240.0,3860.0,1890.0,1883.0,13412906.0,
1239.0,3863.0,1897.0,1882.0,13412910.0,
1238.0,3864.0,1901.0,1883.0,13412914.0,
1238.0,3861.0,1902.0,1883.0,13412918.0,
1238.0,3859.0,1911.0,1888.0,13412922.0,
1239.0,3861.0,1911.0,1892.0,13412926.0,
1240.0,3861.0,1913.0,1896.0,13412930.0,
1240.0,3860.0,1913.0,1903.0,13412934.0,
1238.0,3866.0,1918.0,1911.0,13412938.0,
1239.0,3859.0,1919.0,1918.0,13412942.0,
1239.0,3864.0,1920.0,1931.0,13412945.0,
1240.0,3864.0,1921.0,1940.0,13412949.0,
1239.0,3861.0,1924.0,1953.0,13412953.0,
1237.0,3862.0,1924.0,1968.0,13412957.0,
1238.0,3862.0,1924.0,1979.0,13412961.0,
1239.0,3863.0,1919.0,1994.0,13412965.0,
1240.0,3862.0,1918.0,2007.0,13412969.0,
1241.0,3864.0,1913.0,2023.0,13412972.0,
1238.0,3862.0,1911.0,2038.0,13412976.0,
1238.0,3864.0,1906.0,2051.0,13412980.0,
1239.0,3860.0,1904.0,2067.0,13412984.0,
1240.0,3862.0,1900.0,2079.0,13412988.0,
1241.0,3863.0,1896.0,2094.0,13412992.0,
1238.0,3860.0,1898.0,2105.0,13412996.0,
1237.0,3857.0,1899.0,2115.0,13412999.0,
1239.0,3863.0,1901.0,2126.0,13413003.0,
1240.0,3860.0,1905.0,2137.0,13413007.0,
1240.0,3863.0,1909.0,2146.0,13413011.0,
1239.0,3861.0,1910.0,2153.0,13413015.0,
1239.0,3860.0,1917.0,2162.0,13413019.0,
1239.0,3864.0,1922.0,2170.0,13413023.0,
1240.0,3862.0,1923.0,2177.0,13413027.0,
1240.0,3864.0,1929.0,2183.0,13413031.0,
1239.0,3860.0,1936.0,2187.0,13413034.0,
1238.0,3862.0,1939.0,2196.0,13413038.0,
1238.0,3863.0,1942.0,2202.0,13413042.0,
1241.0,3862.0,1946.0,2203.0,13413046.0,
1240.0,3859.0,1952.0,2204.0,13413050.0,
1240.0,3862.0,1957.0,2208.0,13413054.0,
1240.0,3859.0,1962.0,2206.0,13413058.0,
1238.0,3864.0,1964.0,2205.0,13413062.0,
1240.0,3860.0,1969.0,2207.0,13413066.0,
1242.0,3864.0,1973.0,2209.0,13413069.0,
1241.0,3860.0,1976.0,2211.0,13413073.0,
1238.0,3859.0,1982.0,2207.0,13413077.0,
1238.0,3862.0,1986.0,2207.0,13413081.0,
1240.0,3862.0,1993.0,2204.0,13413085.0,
1241.0,3863.0,1998.0,2201.0,13413089.0,
1241.0,3861.0,2004.0,2201.0,13413093.0,
1240.0,3862.0,2010.0,2200.0,13413097.0,
1240.0,3860.0,2019.0,2193.0,13413101.0,
1239.0,3863.0,2026.0,2193.0,13413105.0,
1240.0,3860.0,2036.0,2186.0,13413109.0,
1240.0,3863.0,2044.0,2186.0,13413113.0,
1240.0,3860.0,2051.0,2184.0,13413116.0,
1239.0,3864.0,2058.0,2178.0,13413120.0,
1239.0,3861.0,2070.0,2173.0,13413124.0,
1242.0,3863.0,2083.0,2168.0,13413128.0,
1241.0,3862.0,2093.0,2163.0,13413132.0,
1238.0,3863.0,2106.0,2156.0,13413136.0,
1238.0,3863.0,2116.0,2150.0,13413140.0,
1240.0,3861.0,2128.0,2145.0,13413144.0,
1241.0,3862.0,2135.0,2139.0,13413148.0,
1241.0,3860.0,2145.0,2131.0,13413152.0,
1240.0,3861.0,2151.0,2128.0,13413156.0,
1238.0,3860.0,2161.0,2121.0,13413160.0,
1240.0,3862.0,2167.0,2116.0,13413164.0,
1240.0,3861.0,2174.0,2112.0,13413168.0,
1241.0,3859.0,2183.0,2104.0,13413171.0,
1239.0,3862.0,2189.0,2099.0,13413175.0,
1240.0,3862.0,2197.0,2091.0,13413179.0,
1241.0,3863.0,2202.0,2087.0,13413183.0,
1241.0,3863.0,2209.0,2078.0,13413187.0,
1241.0,3861.0,2214.0,2073.0,13413191.0,
1239.0,3865.0,2219.0,2071.0,13413195.0,
1239.0,3861.0,2222.0,2061.0,13413199.0,
1240.0,3862.0,2226.0,2061.0,13413203.0,
1241.0,3861.0,2224.0,2056.0,13413207.0,
1241.0,3859.0,2226.0,2049.0,13413211.0,
1240.0,3859.0,2221.0,2042.0,13413215.0,
1239.0,3908.0,2220.0,2042.0,13413218.0,
1240.0,3862.0,2217.0,2037.0,13413222.0,
1240.0,3862.0,2208.0,2033.0,13413226.0,
1241.0,3860.0,2206.0,2030.0,13413230.0,
1240.0,3863.0,2198.0,2027.0,13413234.0,
1240.0,3859.0,2193.0,2023.0,13413238.0,
1239.0,3863.0,2185.0,2022.0,13413242.0,
1241.0,3861.0,2180.0,2020.0,13413245.0,
1241.0,3861.0,2176.0,2016.0,13413249.0,
1242.0,3863.0,2170.0,2018.0,13413253.0,
1240.0,3862.0,2162.0,2015.0,13413257.0,
1240.0,3862.0,2159.0,2014.0,13413261.0,
1240.0,3866.0,2152.0,2016.0,13413265.0,
1242.0,3860.0,2148.0,2012.0,13413269.0,
1241.0,3862.0,2142.0,2011.0,13413273.0,
1239.0,3861.0,2137.0,2012.0,13413277.0,
1239.0,3863.0,2133.0,2010.0,13413281.0,
1240.0,3859.0,2130.0,2011.0,13413284.0,
1242.0,3862.0,2129.0,2009.0,13413288.0,
1240.0,3862.0,2127.0,2009.0,13413292.0,
1240.0,3860.0,2125.0,2008.0,13413296.0,
1239.0,3864.0,2120.0,2009.0,13413300.0,
1240.0,3862.0,2119.0,2011.0,13413304.0,
1241.0,3862.0,2113.0,2011.0,13413308.0,
1240.0,3862.0,2118.0,2009.0,13413311.0,
1239.0,3863.0,2116.0,2011.0,13413315.0,
1240.0,3860.0,2121.0,2010.0,13413319.0,
1240.0,3863.0,2121.0,2012.0,13413323.0,
1240.0,3862.0,2121.0,2009.0,13413327.0,
1240.0,3865.0,2120.0,2007.0,13413331.0,
1240.0,3860.0,2121.0,2006.0,13413335.0,
1239.0,3860.0,2119.0,2001.0,13413339.0,
1241.0,3859.0,2118.0,1995.0,13413346.0,
1241.0,3862.0,2119.0,1993.0,13413350.0,
1241.0,3860.0,2124.0,1985.0,13413354.0,
1239.0,3863.0,2123.0,1983.0,13413357.0,
1240.0,3861.0,2129.0,1977.0,13413361.0,
1240.0,3862.0,2133.0,1975.0,13413365.0,
1240.0,3860.0,2134.0,1967.0,13413369.0,
1241.0,3859.0,2142.0,1967.0,13413373.0,
1239.0,3859.0,2150.0,1960.0,13413377.0,
1239.0,3860.0,2156.0,1959.0,13413381.0,
1240.0,3862.0,2164.0,1957.0,13413385.0,
1241.0,3864.0,2170.0,1954.0,13413389.0,
1240.0,3862.0,2176.0,1952.0,13413393.0,
1239.0,3862.0,2182.0,1954.0,13413396.0,
1238.0,3862.0,2189.0,1952.0,13413400.0,
1240.0,3862.0,2191.0,1952.0,13413404.0,
1241.0,3862.0,2196.0,1951.0,13413408.0,
1241.0,3860.0,2197.0,1951.0,13413412.0,
1239.0,3861.0,2197.0,1946.0,13413416.0,
1239.0,3861.0,2202.0,1946.0,13413420.0,
1240.0,3861.0,2202.0,1947.0,13413424.0,
1241.0,3860.0,2201.0,1944.0,13413429.0,
1241.0,3864.0,2203.0,1945.0,13413432.0,
1240.0,3859.0,2204.0,1939.0,13413436.0,
1239.0,3861.0,2204.0,1936.0,13413440.0,
1240.0,3860.0,2204.0,1939.0,13413444.0,
1241.0,3865.0,2202.0,1939.0,13413448.0,
1241.0,3859.0,2200.0,1932.0,13413452.0,
1240.0,3863.0,2200.0,1934.0,13413456.0,
1239.0,3862.0,2198.0,1931.0,13413460.0,
1240.0,3863.0,2198.0,1928.0,13413465.0,
1241.0,3860.0,2197.0,1923.0,13413469.0,
1241.0,3861.0,2196.0,1922.0,13413473.0,
1240.0,3861.0,2193.0,1919.0,13413476.0,
1239.0,3862.0,2192.0,1915.0,13413481.0,
1241.0,3862.0,2185.0,1911.0,13413485.0,
1242.0,3863.0,2180.0,1905.0,13413489.0,
1242.0,3860.0,2178.0,1900.0,13413493.0,
1239.0,3864.0,2175.0,1896.0,13413497.0,
1239.0,3860.0,2170.0,1891.0,13413501.0,
1241.0,3864.0,2165.0,1889.0,13413505.0,
1241.0,3861.0,2165.0,1891.0,13413509.0,
1240.0,3863.0,2159.0,1893.0,13413513.0,
1238.0,3858.0,2160.0,1890.0,13413517.0,
1240.0,3862.0,2155.0,1891.0,13413521.0,
1241.0,3862.0,2150.0,1895.0,13413525.0,
1241.0,3860.0,2147.0,1899.0,13413529.0,
1242.0,3858.0,2142.0,1897.0,13413533.0,
1239.0,3861.0,2138.0,1897.0,13413537.0,
1240.0,3863.0,2131.0,1902.0,13413541.0,
1241.0,3861.0,2127.0,1904.0,13413545.0,
1241.0,3864.0,2119.0,1910.0,13413549.0,
1242.0,3860.0,2112.0,1908.0,13413553.0,
1239.0,3866.0,2103.0,1913.0,13413556.0,
1240.0,3863.0,2092.0,1917.0,13413560.0,
1240.0,3863.0,2082.0,1920.0,13413564.0,
1241.0,3863.0,2074.0,1923.0,13413568.0,
1240.0,3860.0,2061.0,1927.0,13413573.0,
1240.0,3862.0,2051.0,1934.0,13413576.0,
1240.0,3863.0,2044.0,1938.0,13413580.0,
1240.0,3860.0,2031.0,1939.0,13413584.0,
1241.0,3861.0,2027.0,1942.0,13413588.0,
1241.0,3862.0,2020.0,1946.0,13413592.0,
1240.0,3858.0,2015.0,1948.0,13413596.0,
1239.0,3862.0,2009.0,1951.0,13413600.0,
1240.0,3861.0,2007.0,1954.0,13413604.0,
1241.0,3862.0,2001.0,1953.0,13413608.0,
1241.0,3860.0,1999.0,1955.0,13413611.0,
1240.0,3861.0,2000.0,1955.0,13413615.0,
1239.0,3862.0,1995.0,1953.0,13413619.0,
1240.0,3863.0,1996.0,1959.0,13413623.0,
1241.0,3859.0,1996.0,1954.0,13413627.0,
1241.0,3861.0,1995.0,1952.0,13413631.0,
1241.0,3863.0,1998.0,1951.0,13413635.0,
1240.0,3864.0,2000.0,1950.0,13413639.0,
1240.0,3863.0,2001.0,1947.0,13413643.0,
1244.0,3863.0,2001.0,1943.0,13413647.0,
1241.0,3862.0,2004.0,1944.0,13413651.0,
1241.0,3860.0,2001.0,1943.0,13413655.0,
1239.0,3862.0,2004.0,1941.0,13413659.0,
1240.0,3864.0,2008.0,1940.0,13413662.0,
1240.0,3863.0,2008.0,1940.0,13413666.0,
1242.0,3862.0,2006.0,1940.0,13413670.0,
1241.0,3861.0,2011.0,1939.0,13413674.0,
1239.0,3863.0,2015.0,1942.0,13413678.0,
1240.0,3861.0,2018.0,1938.0,13413682.0,
1242.0,3863.0,2019.0,1940.0,13413686.0,
1242.0,3860.0,2024.0,1937.0,13413690.0,
1243.0,3864.0,2025.0,1941.0,13413693.0,
1241.0,3864.0,2029.0,1940.0,13413697.0,
1240.0,3864.0,2033.0,1936.0,13413701.0,
1240.0,3861.0,2036.0,1934.0,13413705.0,
1242.0,3863.0,2039.0,1932.0,13413709.0,
1242.0,3862.0,2041.0,1926.0,13413713.0,
1240.0,3864.0,2043.0,1924.0,13413717.0,
1239.0,3860.0,2043.0,1922.0,13413721.0,
1240.0,3864.0,2045.0,1916.0,13413725.0,
1241.0,3860.0,2050.0,1917.0,13413729.0,
1241.0,3862.0,2051.0,1913.0,13413733.0,
1240.0,3860.0,2052.0,1912.0,13413736.0,
1239.0,3862.0,2048.0,1908.0,13413740.0,
1240.0,3863.0,2051.0,1913.0,13413744.0,
1241.0,3865.0,2051.0,1913.0,13413748.0,
1241.0,3861.0,2056.0,1912.0,13413752.0,
1240.0,3864.0,2053.0,1919.0,13413756.0,
1239.0,3862.0,2053.0,1926.0,13413760.0,
1240.0,3861.0,2053.0,1933.0,13413764.0,
1241.0,3863.0,2054.0,1945.0,13413768.0,
1241.0,3861.0,2052.0,1955.0,13413772.0,
1240.0,3863.0,2054.0,1967.0,13413776.0,
1239.0,3865.0,2049.0,1979.0,13413780.0,
1241.0,3864.0,2046.0,1997.0,13413785.0,
1241.0,3861.0,2045.0,2007.0,13413788.0,
1242.0,3864.0,2038.0,2022.0,13413792.0,
1240.0,3865.0,2036.0,2036.0,13413796.0,
1239.0,3864.0,2032.0,2049.0,13413800.0,
1240.0,3861.0,2030.0,2060.0,13413804.0,
1241.0,3864.0,2026.0,2076.0,13413808.0,
1242.0,3860.0,2027.0,2087.0,13413812.0,
1240.0,3864.0,2026.0,2104.0,13413815.0,
1239.0,3863.0,2028.0,2114.0,13413819.0,
1239.0,3862.0,2028.0,2130.0,13413823.0,
1241.0,3860.0,2030.0,2143.0,13413827.0,
1242.0,3866.0,2033.0,2159.0,13413831.0,
1239.0,3861.0,2041.0,2170.0,13413835.0,
1240.0,3861.0,2041.0,2183.0,13413839.0,
1240.0,3861.0,2044.0,2193.0,13413843.0,
1241.0,3863.0,2045.0,2207.0,13413847.0,
1242.0,3862.0,2048.0,2212.0,13413851.0,
1242.0,3863.0,2054.0,2224.0,13413855.0,
1240.0,3865.0,2060.0,2231.0,13413859.0,
1240.0,3864.0,2067.0,2238.0,13413863.0,
1241.0,3862.0,2071.0,2245.0,13413867.0,
1242.0,3864.0,2081.0,2250.0,13413871.0,
1241.0,3863.0,2090.0,2254.0,13413874.0,
1241.0,3862.0,2096.0,2262.0,13413878.0,
1240.0,3863.0,2105.0,2267.0,13413882.0,
1241.0,3862.0,2115.0,2267.0,13413886.0,
1242.0,3863.0,2124.0,2275.0,13413890.0,
1242.0,3859.0,2133.0,2276.0,13413894.0,
1240.0,3863.0,2139.0,2280.0,13413898.0,
1240.0,3863.0,2147.0,2280.0,13413902.0,
1241.0,3861.0,2152.0,2279.0,13413906.0,
1242.0,3862.0,2163.0,2276.0,13413909.0,
1242.0,3863.0,2166.0,2278.0,13413913.0,
1241.0,3863.0,2176.0,2275.0,13413917.0,
1239.0,3861.0,2182.0,2268.0,13413921.0,
1241.0,3862.0,2192.0,2269.0,13413925.0,
1242.0,3861.0,2197.0,2269.0,13413929.0,
1242.0,3862.0,2203.0,2262.0,13413933.0,
1240.0,3863.0,2211.0,2260.0,13413937.0,
1240.0,3864.0,2216.0,2256.0,13413941.0,
1241.0,3863.0,2221.0,2255.0,13413945.0,
1244.0,3863.0,2225.0,2250.0,13413949.0,
1242.0,3862.0,2229.0,2248.0,13413953.0,
1241.0,3865.0,2232.0,2245.0,13413956.0,
1241.0,3861.0,2234.0,2237.0,13413960.0,
1240.0,3862.0,2236.0,2233.0,13413964.0,
1242.0,3862.0,2239.0,2225.0,13413968.0,
1241.0,3862.0,2243.0,2220.0,13413972.0,
1241.0,3861.0,2244.0,2216.0,13413976.0,
1239.0,3862.0,2246.0,2208.0,13413980.0,
1240.0,3861.0,2247.0,2202.0,13413984.0,
1242.0,3862.0,2249.0,2196.0,13413987.0,
1242.0,3859.0,2253.0,2192.0,13413991.0,
1241.0,3864.0,2254.0,2188.0,13413995.0,
1240.0,3859.0,2257.0,2178.0,13413999.0,
1240.0,3863.0,2264.0,2174.0,13414003.0,
1241.0,3860.0,2267.0,2167.0,13414007.0,
1243.0,3861.0,2270.0,2157.0,13414011.0,
1241.0,3859.0,2274.0,2153.0,13414015.0,
1240.0,3859.0,2279.0,2144.0,13414019.0,
1240.0,3860.0,2282.0,2139.0,13414022.0,
1242.0,3862.0,2284.0,2135.0,13414026.0,
1243.0,3860.0,2286.0,2133.0,13414030.0,
1242.0,3858.0,2287.0,2133.0,13414034.0,
1239.0,3863.0,2289.0,2132.0,13414038.0,
1243.0,3859.0,2286.0,2131.0,13414042.0,
1242.0,3861.0,2286.0,2131.0,13414046.0,
1243.0,3861.0,2286.0,2129.0,13414049.0,
1242.0,3862.0,2283.0,2128.0,13414053.0,
1241.0,3861.0,2283.0,2129.0,13414057.0,
1240.0,3860.0,2279.0,2131.0,13414061.0,
1242.0,3860.0,2274.0,2131.0,13414065.0,
1242.0,3861.0,2276.0,2129.0,13414069.0,
1242.0,3861.0,2275.0,2127.0,13414072.0,
1241.0,3861.0,2274.0,2125.0,13414076.0,
1240.0,3864.0,2277.0,2131.0,13414080.0,
1241.0,3860.0,2275.0,2125.0,13414084.0,
1242.0,3861.0,2278.0,2126.0,13414088.0,
1242.0,3860.0,2278.0,2127.0,13414092.0,
1241.0,3862.0,2275.0,2123.0,13414096.0,
1242.0,3860.0,2277.0,2124.0,13414099.0,
1241.0,3859.0,2274.0,2121.0,13414104.0,
1242.0,3861.0,2272.0,2122.0,13414108.0,
1241.0,3860.0,2266.0,2121.0,13414112.0,
1241.0,3860.0,2264.0,2122.0,13414116.0,
1241.0,3862.0,2259.0,2122.0,13414120.0,
1241.0,3862.0,2257.0,2122.0,13414124.0,
1242.0,3862.0,2254.0,2117.0,13414128.0,
