EDA,Resp,PPG Finger,PPG Ear,arduino_ts,event_code
2470.0,4053.0,2053.0,2060.0,3047967.0,
2472.0,4051.0,2035.0,2055.0,3047971.0,
2476.0,4052.0,2018.0,2053.0,3047975.0,
2476.0,4051.0,2002.0,2050.0,3047979.0,
2474.0,4053.0,1986.0,2050.0,3047982.0,
2471.0,4051.0,1973.0,2047.0,3047986.0,
2472.0,4053.0,1958.0,2048.0,3047990.0,
2475.0,4051.0,1937.0,2046.0,3047994.0,
2477.0,4051.0,1924.0,2042.0,3047998.0,
2473.0,4051.0,1912.0,2041.0,3048002.0,
2471.0,4050.0,1894.0,2040.0,3048005.0,
2471.0,4052.0,1879.0,2042.0,3048009.0,
2473.0,4052.0,1867.0,2042.0,3048013.0,
2474.0,4049.0,1855.0,2042.0,3048017.0,
2475.0,4052.0,1847.0,2042.0,3048021.0,
2473.0,4051.0,1835.0,2040.0,3048024.0,
2470.0,4053.0,1830.0,2044.0,3048028.0,
2473.0,4051.0,1821.0,2042.0,3048032.0,
2476.0,4050.0,1814.0,2040.0,3048036.0,
2475.0,4051.0,1806.0,2040.0,3048040.0,
2473.0,4051.0,1800.0,2039.0,3048043.0,
2471.0,4053.0,1795.0,2044.0,3048047.0,
2473.0,4052.0,1789.0,2042.0,3048051.0,
2476.0,4052.0,1784.0,2044.0,3048055.0,
2475.0,4051.0,1777.0,2041.0,3048059.0,
2474.0,4051.0,1776.0,2042.0,3048063.0,
2470.0,4050.0,1776.0,2042.0,3048067.0,
2472.0,4053.0,1764.0,2041.0,3048071.0,
2475.0,4050.0,1765.0,2041.0,3048075.0,
2477.0,4051.0,1763.0,2045.0,3048078.0,
2473.0,4051.0,1764.0,2043.0,3048082.0,
2471.0,4051.0,1766.0,2038.0,3048086.0,
2471.0,4051.0,1772.0,2039.0,3048090.0,
2473.0,4049.0,1777.0,2042.0,3048094.0,
2474.0,4053.0,1783.0,2040.0,3048097.0,
2474.0,4052.0,1786.0,2039.0,3048101.0,
2471.0,4052.0,1793.0,2039.0,3048105.0,
2471.0,4051.0,1799.0,2035.0,3048109.0,
2474.0,4051.0,1803.0,2036.0,3048113.0,
2475.0,4050.0,1807.0,2036.0,3048117.0,
2474.0,4050.0,1807.0,2036.0,3048120.0,
2472.0,4052.0,1815.0,2036.0,3048124.0,
2471.0,4051.0,1815.0,2035.0,3048128.0,
2473.0,4051.0,1816.0,2031.0,3048132.0,
2476.0,4050.0,1824.0,2031.0,3048136.0,
2476.0,4051.0,1824.0,2031.0,3048139.0,
2472.0,4051.0,1826.0,2027.0,3048143.0,
2471.0,4050.0,1828.0,2027.0,3048147.0,
2472.0,4051.0,1828.0,2024.0,3048151.0,
2474.0,4052.0,1830.0,2026.0,3048155.0,
2475.0,4051.0,1829.0,2024.0,3048159.0,
2474.0,4051.0,1829.0,2025.0,3048162.0,
2471.0,4051.0,1832.0,2021.0,3048166.0,
2472.0,4051.0,1838.0,2021.0,3048170.0,
2475.0,4051.0,1841.0,2020.0,3048174.0,
2476.0,4051.0,1843.0,2020.0,3048178.0,
2475.0,4052.0,1844.0,2020.0,3048182.0,
2471.0,4051.0,1848.0,2018.0,3048185.0,
2472.0,4051.0,1847.0,2017.0,3048189.0,
2476.0,4054.0,1847.0,2021.0,3048193.0,
2476.0,4054.0,1842.0,2017.0,3048197.0,
2475.0,4053.0,1842.0,2017.0,3048201.0,
2471.0,4053.0,1837.0,2015.0,3048205.0,
2471.0,4052.0,1832.0,2014.0,3048208.0,
2474.0,4052.0,1827.0,2013.0,3048212.0,
2474.0,4052.0,1826.0,2012.0,3048216.0,
2475.0,4053.0,1821.0,2011.0,3048220.0,
2472.0,4052.0,1820.0,2011.0,3048224.0,
2471.0,4053.0,1811.0,2008.0,3048228.0,
2473.0,4052.0,1809.0,2011.0,3048232.0,
2476.0,4051.0,1807.0,2011.0,3048235.0,
2476.0,4050.0,1800.0,2009.0,3048239.0,
2472.0,4051.0,1797.0,2007.0,3048243.0,
2470.0,4051.0,1791.0,2007.0,3048247.0,
2472.0,4050.0,1786.0,2006.0,3048251.0,
2476.0,4051.0,1782.0,2007.0,3048255.0,
2476.0,4052.0,1778.0,2005.0,3048258.0,
2473.0,4053.0,1773.0,2007.0,3048262.0,
2471.0,4051.0,1768.0,2011.0,3048266.0,
2472.0,4051.0,1761.0,2007.0,3048270.0,
2475.0,4050.0,1756.0,2006.0,3048274.0,
2476.0,4050.0,1754.0,2007.0,3048277.0,
2474.0,4053.0,1753.0,2007.0,3048281.0,
2472.0,4049.0,1749.0,2007.0,3048286.0,
2471.0,4052.0,1749.0,2003.0,3048290.0,
2475.0,4050.0,1751.0,2005.0,3048293.0,
2476.0,4052.0,1744.0,2006.0,3048297.0,
2474.0,4053.0,1739.0,2006.0,3048301.0,
2470.0,4051.0,1738.0,2005.0,3048305.0,
2470.0,4052.0,1733.0,2004.0,3048309.0,
2474.0,4052.0,1730.0,2006.0,3048312.0,
2476.0,4052.0,1725.0,2003.0,3048316.0,
2476.0,4050.0,1723.0,2005.0,3048320.0,
2473.0,4050.0,1719.0,2003.0,3048324.0,
2471.0,4050.0,1717.0,2002.0,3048328.0,
2472.0,4083.0,1715.0,2004.0,3048331.0,
2476.0,4052.0,1719.0,2004.0,3048335.0,
2477.0,4051.0,1719.0,2005.0,3048339.0,
2473.0,4051.0,1718.0,2003.0,3048343.0,
2468.0,4051.0,1720.0,2004.0,3048347.0,
2471.0,4050.0,1718.0,2002.0,3048351.0,
2475.0,4050.0,1717.0,2002.0,3048354.0,
2475.0,4051.0,1715.0,2003.0,3048358.0,
2474.0,4050.0,1716.0,1999.0,3048362.0,
2468.0,4051.0,1716.0,1997.0,3048366.0,
2472.0,4050.0,1715.0,1998.0,3048370.0,
2476.0,4050.0,1713.0,2000.0,3048373.0,
2477.0,4050.0,1714.0,2000.0,3048377.0,
2474.0,4051.0,1714.0,1998.0,3048381.0,
2471.0,4051.0,1714.0,1997.0,3048385.0,
2471.0,4051.0,1714.0,1997.0,3048389.0,
2475.0,4053.0,1717.0,1997.0,3048392.0,
2476.0,4051.0,1720.0,1999.0,3048396.0,
2475.0,4051.0,1723.0,1996.0,3048400.0,
2473.0,4052.0,1727.0,1997.0,3048404.0,
2471.0,4050.0,1731.0,1997.0,3048408.0,
2473.0,4050.0,1733.0,1996.0,3048412.0,
2476.0,4051.0,1739.0,1997.0,3048415.0,
2473.0,4050.0,1737.0,1998.0,3048419.0,
2471.0,4051.0,1739.0,2001.0,3048423.0,
2471.0,4050.0,1738.0,2003.0,3048427.0,
2473.0,4051.0,1738.0,2005.0,3048431.0,
2476.0,4050.0,1739.0,2007.0,3048435.0,
2476.0,4050.0,1739.0,2012.0,3048438.0,
2473.0,4052.0,1741.0,2018.0,3048442.0,
2470.0,4051.0,1738.0,2021.0,3048446.0,
2473.0,4051.0,1737.0,2025.0,3048450.0,
2475.0,4051.0,1738.0,2031.0,3048454.0,
2476.0,4049.0,1736.0,2035.0,3048458.0,
2474.0,4050.0,1735.0,2043.0,3048461.0,
2470.0,4051.0,1734.0,2048.0,3048465.0,
2471.0,4049.0,1735.0,2057.0,3048469.0,
2473.0,4053.0,1735.0,2064.0,3048473.0,
2476.0,4050.0,1738.0,2069.0,3048477.0,
2476.0,4053.0,1738.0,2080.0,3048480.0,
2474.0,4053.0,1741.0,2083.0,3048484.0,
2471.0,4052.0,1745.0,2091.0,3048488.0,
2473.0,4051.0,1749.0,2096.0,3048492.0,
2477.0,4053.0,1761.0,2104.0,3048496.0,
2474.0,4053.0,1773.0,2108.0,3048499.0,
2472.0,4051.0,1787.0,2116.0,3048503.0,
2470.0,4051.0,1802.0,2123.0,3048507.0,
2473.0,4054.0,1816.0,2131.0,3048511.0,
2476.0,4052.0,1834.0,2133.0,3048515.0,
2477.0,4052.0,1857.0,2140.0,3048519.0,
2473.0,4050.0,1878.0,2142.0,3048523.0,
2470.0,4052.0,1904.0,2147.0,3048526.0,
2472.0,4052.0,1933.0,2149.0,3048530.0,
2475.0,4052.0,1956.0,2153.0,3048534.0,
2476.0,4052.0,1990.0,2154.0,3048538.0,
2474.0,4052.0,2021.0,2155.0,3048542.0,
2471.0,4051.0,2050.0,2159.0,3048545.0,
2471.0,4050.0,2085.0,2157.0,3048549.0,
2475.0,4051.0,2118.0,2159.0,3048553.0,
2476.0,4053.0,2148.0,2162.0,3048557.0,
2473.0,4050.0,2177.0,2162.0,3048561.0,
2471.0,4052.0,2205.0,2162.0,3048565.0,
2472.0,4051.0,2230.0,2161.0,3048568.0,
2474.0,4053.0,2256.0,2162.0,3048572.0,
2476.0,4052.0,2277.0,2162.0,3048576.0,
2476.0,4052.0,2296.0,2161.0,3048580.0,
2471.0,4050.0,2318.0,2161.0,3048584.0,
2471.0,4052.0,2331.0,2162.0,3048588.0,
2473.0,4050.0,2342.0,2161.0,3048591.0,
2477.0,4050.0,2354.0,2159.0,3048595.0,
2476.0,4052.0,2361.0,2161.0,3048599.0,
2472.0,4051.0,2366.0,2156.0,3048603.0,
2472.0,4052.0,2364.0,2156.0,3048607.0,
2472.0,4051.0,2365.0,2153.0,3048610.0,
2475.0,4052.0,2363.0,2153.0,3048614.0,
2476.0,4050.0,2355.0,2151.0,3048618.0,
2473.0,4050.0,2353.0,2149.0,3048622.0,
2470.0,4050.0,2345.0,2147.0,3048626.0,
2472.0,4052.0,2335.0,2146.0,3048630.0,
2476.0,4052.0,2327.0,2144.0,3048634.0,
2476.0,4052.0,2319.0,2143.0,3048638.0,
2474.0,4051.0,2305.0,2141.0,3048641.0,
2470.0,4052.0,2293.0,2139.0,3048645.0,
2472.0,4050.0,2281.0,2134.0,3048649.0,
2475.0,4051.0,2261.0,2135.0,3048653.0,
2476.0,4051.0,2250.0,2129.0,3048657.0,
2474.0,4051.0,2231.0,2130.0,3048660.0,
2471.0,4050.0,2213.0,2126.0,3048664.0,
2471.0,4053.0,2197.0,2123.0,3048668.0,
2475.0,4050.0,2182.0,2119.0,3048672.0,
2476.0,4053.0,2165.0,2117.0,3048676.0,
2474.0,4050.0,2146.0,2113.0,3048680.0,
2472.0,4052.0,2130.0,2110.0,3048683.0,
2471.0,4051.0,2115.0,2106.0,3048687.0,
2473.0,4052.0,2104.0,2102.0,3048691.0,
2475.0,4051.0,2087.0,2096.0,3048695.0,
2475.0,4052.0,2071.0,2093.0,3048699.0,
2472.0,4053.0,2056.0,2094.0,3048703.0,
2472.0,4050.0,2042.0,2086.0,3048707.0,
2472.0,4052.0,2029.0,2086.0,3048710.0,
2478.0,4052.0,2018.0,2080.0,3048714.0,
2477.0,4052.0,2005.0,2079.0,3048718.0,
2474.0,4051.0,1995.0,2075.0,3048722.0,
2471.0,4052.0,1985.0,2074.0,3048726.0,
2471.0,4050.0,1974.0,2071.0,3048730.0,
2475.0,4053.0,1961.0,2069.0,3048733.0,
2476.0,4051.0,1952.0,2064.0,3048737.0,
2473.0,4052.0,1937.0,2061.0,3048741.0,
2471.0,4053.0,1929.0,2060.0,3048745.0,
2471.0,4051.0,1916.0,2056.0,3048749.0,
2474.0,4052.0,1902.0,2056.0,3048753.0,
2476.0,4051.0,1892.0,2052.0,3048757.0,
2474.0,4052.0,1883.0,2048.0,3048760.0,
2471.0,4051.0,1874.0,2053.0,3048764.0,
2471.0,4051.0,1863.0,2046.0,3048768.0,
2474.0,4050.0,1860.0,2048.0,3048772.0,
2476.0,4053.0,1851.0,2048.0,3048776.0,
2475.0,4051.0,1843.0,2046.0,3048780.0,
2472.0,4050.0,1835.0,2043.0,3048784.0,
2471.0,4051.0,1832.0,2043.0,3048787.0,
2473.0,4051.0,1825.0,2042.0,3048791.0,
2476.0,4052.0,1820.0,2043.0,3048795.0,
2475.0,4053.0,1817.0,2045.0,3048799.0,
2472.0,4052.0,1815.0,2044.0,3048803.0,
2470.0,4052.0,1811.0,2044.0,3048806.0,
2474.0,4052.0,1810.0,2043.0,3048810.0,
2474.0,4050.0,1807.0,2042.0,3048814.0,
2476.0,4050.0,1809.0,2043.0,3048818.0,
2472.0,4052.0,1811.0,2044.0,3048822.0,
2471.0,4050.0,1810.0,2043.0,3048826.0,
2472.0,4049.0,1811.0,2043.0,3048830.0,
2475.0,4052.0,1813.0,2042.0,3048833.0,
2477.0,4051.0,1817.0,2044.0,3048837.0,
2474.0,4051.0,1821.0,2041.0,3048841.0,
2471.0,4051.0,1829.0,2044.0,3048845.0,
2471.0,4051.0,1833.0,2041.0,3048849.0,
2475.0,4052.0,1836.0,2046.0,3048852.0,
2477.0,4052.0,1839.0,2041.0,3048856.0,
2476.0,4052.0,1846.0,2043.0,3048860.0,
2472.0,4051.0,1852.0,2044.0,3048864.0,
2471.0,4050.0,1852.0,2044.0,3048868.0,
2473.0,4051.0,1855.0,2044.0,3048871.0,
2475.0,4051.0,1858.0,2040.0,3048875.0,
2476.0,4050.0,1860.0,2039.0,3048879.0,
2473.0,4050.0,1860.0,2038.0,3048883.0,
2470.0,4051.0,1864.0,2039.0,3048887.0,
2472.0,4051.0,1861.0,2039.0,3048890.0,
2476.0,4049.0,1866.0,2037.0,3048894.0,
2476.0,4052.0,1862.0,2037.0,3048898.0,
2472.0,4052.0,1862.0,2035.0,3048902.0,
2469.0,4050.0,1861.0,2033.0,3048906.0,
2472.0,4050.0,1858.0,2032.0,3048910.0,
2475.0,4050.0,1857.0,2033.0,3048913.0,
2477.0,4052.0,1855.0,2033.0,3048917.0,
2476.0,4050.0,1851.0,2028.0,3048921.0,
2471.0,4051.0,1848.0,2028.0,3048925.0,
2472.0,4051.0,1846.0,2024.0,3048929.0,
2475.0,4050.0,1840.0,2022.0,3048933.0,
2477.0,4050.0,1838.0,2023.0,3048936.0,
2474.0,4051.0,1834.0,2019.0,3048940.0,
2471.0,4051.0,1832.0,2019.0,3048944.0,
2470.0,4050.0,1830.0,2020.0,3048948.0,
2474.0,4051.0,1829.0,2019.0,3048952.0,
2476.0,4051.0,1828.0,2016.0,3048956.0,
2475.0,4051.0,1823.0,2015.0,3048959.0,
2472.0,4052.0,1821.0,2020.0,3048963.0,
2470.0,4050.0,1822.0,2015.0,3048967.0,
2473.0,4051.0,1821.0,2014.0,3048971.0,
2476.0,4052.0,1819.0,2010.0,3048975.0,
2476.0,4051.0,1816.0,2010.0,3048978.0,
2473.0,4054.0,1812.0,2010.0,3048982.0,
2470.0,4050.0,1809.0,2006.0,3048986.0,
2470.0,4050.0,1809.0,2008.0,3048990.0,
2475.0,4051.0,1803.0,2006.0,3048994.0,
2476.0,4051.0,1799.0,2001.0,3048997.0,
2474.0,4052.0,1794.0,2005.0,3049001.0,
2471.0,4050.0,1788.0,2003.0,3049005.0,
2472.0,4052.0,1786.0,2001.0,3049009.0,
2475.0,4052.0,1782.0,2002.0,3049013.0,
2476.0,4051.0,1778.0,1999.0,3049017.0,
2474.0,4051.0,1773.0,2001.0,3049021.0,
2472.0,4051.0,1770.0,2004.0,3049024.0,
2471.0,4052.0,1766.0,2000.0,3049028.0,
2475.0,4052.0,1763.0,2002.0,3049032.0,
2476.0,4053.0,1762.0,2003.0,3049036.0,
2475.0,4052.0,1757.0,2002.0,3049040.0,
2471.0,4053.0,1758.0,2001.0,3049044.0,
2471.0,4052.0,1758.0,2003.0,3049047.0,
2472.0,4051.0,1755.0,2002.0,3049051.0,
2478.0,4052.0,1757.0,2003.0,3049055.0,
2476.0,4050.0,1756.0,2003.0,3049059.0,
2471.0,4050.0,1754.0,2005.0,3049063.0,
2471.0,4051.0,1760.0,2006.0,3049067.0,
2474.0,4051.0,1758.0,2007.0,3049071.0,
2474.0,4050.0,1763.0,2007.0,3049074.0,
2476.0,4052.0,1764.0,2005.0,3049078.0,
2471.0,4050.0,1766.0,2006.0,3049082.0,
2471.0,4051.0,1766.0,2005.0,3049086.0,
2472.0,4052.0,1768.0,2003.0,3049090.0,
2473.0,4051.0,1770.0,2006.0,3049094.0,
2476.0,4051.0,1770.0,2003.0,3049097.0,
2473.0,4050.0,1768.0,2005.0,3049101.0,
2471.0,4051.0,1769.0,2003.0,3049105.0,
2471.0,4052.0,1770.0,2004.0,3049109.0,
2475.0,4051.0,1767.0,2004.0,3049113.0,
2477.0,4050.0,1763.0,2006.0,3049116.0,
2474.0,4053.0,1761.0,2005.0,3049120.0,
2471.0,4050.0,1760.0,2007.0,3049124.0,
2471.0,4051.0,1759.0,2005.0,3049128.0,
2474.0,4051.0,1758.0,2006.0,3049132.0,
2476.0,4051.0,1761.0,2004.0,3049137.0,
2474.0,4051.0,1761.0,2004.0,3049141.0,
2472.0,4051.0,1764.0,2004.0,3049145.0,
2471.0,4050.0,1765.0,2003.0,3049148.0,
2474.0,4051.0,1768.0,2004.0,3049152.0,
2476.0,4051.0,1771.0,2004.0,3049156.0,
2475.0,4051.0,1776.0,2003.0,3049160.0,
2470.0,4051.0,1779.0,2006.0,3049164.0,
2472.0,4052.0,1781.0,2004.0,3049168.0,
2474.0,4051.0,1784.0,2002.0,3049171.0,
2477.0,4051.0,1784.0,2003.0,3049175.0,
2475.0,4052.0,1791.0,2005.0,3049179.0,
2472.0,4052.0,1793.0,2008.0,3049183.0,
2471.0,4052.0,1796.0,2007.0,3049186.0,
2473.0,4051.0,1800.0,2010.0,3049190.0,
2476.0,4052.0,1797.0,2012.0,3049194.0,
2475.0,4050.0,1801.0,2014.0,3049198.0,
2472.0,4050.0,1799.0,2018.0,3049202.0,
2471.0,4050.0,1802.0,2021.0,3049206.0,
2472.0,4050.0,1804.0,2026.0,3049210.0,
2476.0,4051.0,1806.0,2032.0,3049214.0,
2476.0,4051.0,1806.0,2037.0,3049217.0,
2473.0,4050.0,1809.0,2046.0,3049221.0,
2470.0,4050.0,1812.0,2050.0,3049225.0,
2472.0,4053.0,1812.0,2061.0,3049229.0,
2475.0,4051.0,1818.0,2065.0,3049233.0,
2477.0,4052.0,1820.0,2075.0,3049236.0,
2474.0,4053.0,1825.0,2080.0,3049240.0,
2472.0,4052.0,1829.0,2088.0,3049244.0,
2471.0,4050.0,1834.0,2096.0,3049248.0,
2475.0,4051.0,1837.0,2104.0,3049252.0,
2475.0,4051.0,1846.0,2112.0,3049256.0,
2475.0,4052.0,1849.0,2114.0,3049259.0,
2471.0,4052.0,1857.0,2124.0,3049263.0,
2470.0,4053.0,1867.0,2131.0,3049267.0,
2473.0,4051.0,1879.0,2135.0,3049271.0,
2477.0,4052.0,1895.0,2142.0,3049275.0,
2475.0,4051.0,1910.0,2146.0,3049278.0,
2472.0,4052.0,1928.0,2153.0,3049282.0,
2471.0,4050.0,1952.0,2155.0,3049286.0,
2472.0,4053.0,1977.0,2159.0,3049290.0,
2477.0,4051.0,2001.0,2162.0,3049294.0,
2479.0,4051.0,2025.0,2169.0,3049297.0,
2473.0,4050.0,2053.0,2168.0,3049301.0,
2471.0,4050.0,2078.0,2170.0,3049305.0,
2472.0,4053.0,2104.0,2170.0,3049309.0,
2475.0,4050.0,2126.0,2170.0,3049313.0,
2476.0,4052.0,2151.0,2174.0,3049316.0,
2473.0,4051.0,2175.0,2171.0,3049320.0,
2470.0,4052.0,2193.0,2172.0,3049324.0,
2471.0,4052.0,2213.0,2173.0,3049328.0,
2475.0,4050.0,2238.0,2173.0,3049332.0,
2476.0,4052.0,2262.0,2173.0,3049337.0,
2474.0,4051.0,2277.0,2170.0,3049340.0,
2472.0,4050.0,2290.0,2171.0,3049344.0,
2471.0,4051.0,2309.0,2171.0,3049348.0,
2473.0,4050.0,2317.0,2170.0,3049352.0,
2476.0,4052.0,2327.0,2171.0,3049356.0,
2474.0,4050.0,2336.0,2168.0,3049360.0,
2471.0,4050.0,2338.0,2166.0,3049363.0,
2472.0,4053.0,2336.0,2166.0,3049367.0,
2473.0,4054.0,2338.0,2163.0,3049371.0,
2476.0,4051.0,2335.0,2163.0,3049375.0,
2475.0,4051.0,2336.0,2161.0,3049379.0,
2472.0,4052.0,2333.0,2158.0,3049383.0,
2471.0,4051.0,2331.0,2155.0,3049386.0,
2473.0,4052.0,2323.0,2154.0,3049390.0,
2476.0,4050.0,2317.0,2151.0,3049394.0,
2476.0,4051.0,2310.0,2148.0,3049398.0,
2472.0,4052.0,2301.0,2150.0,3049402.0,
2471.0,4051.0,2291.0,2147.0,3049406.0,
2472.0,4052.0,2279.0,2144.0,3049410.0,
2476.0,4051.0,2267.0,2141.0,3049413.0,
2476.0,4050.0,2256.0,2140.0,3049417.0,
2473.0,4051.0,2242.0,2136.0,3049421.0,
2471.0,4052.0,2227.0,2134.0,3049425.0,
2473.0,4050.0,2213.0,2130.0,3049429.0,
2476.0,4052.0,2196.0,2127.0,3049432.0,
2476.0,4053.0,2183.0,2124.0,3049436.0,
2472.0,4050.0,2162.0,2118.0,3049440.0,
2471.0,4052.0,2150.0,2115.0,3049444.0,
2471.0,4051.0,2134.0,2112.0,3049448.0,
2475.0,4052.0,2117.0,2107.0,3049451.0,
2477.0,4053.0,2105.0,2106.0,3049455.0,
2475.0,4052.0,2092.0,2100.0,3049459.0,
2472.0,4050.0,2074.0,2093.0,3049463.0,
2471.0,4052.0,2059.0,2091.0,3049467.0,
2475.0,4051.0,2045.0,2087.0,3049471.0,
2476.0,4053.0,2029.0,2086.0,3049475.0,
2476.0,4051.0,2011.0,2080.0,3049478.0,
2473.0,4052.0,1996.0,2078.0,3049482.0,
2471.0,4050.0,1988.0,2073.0,3049486.0,
2473.0,4053.0,1977.0,2073.0,3049490.0,
2476.0,4051.0,1968.0,2069.0,3049494.0,
2476.0,4052.0,1958.0,2067.0,3049497.0,
2472.0,4051.0,1947.0,2064.0,3049501.0,
2471.0,4052.0,1940.0,2062.0,3049505.0,
2473.0,4052.0,1928.0,2060.0,3049509.0,
2476.0,4051.0,1919.0,2058.0,3049513.0,
2478.0,4052.0,1908.0,2059.0,3049517.0,
2474.0,4051.0,1899.0,2053.0,3049521.0,
2471.0,4053.0,1885.0,2055.0,3049524.0,
2472.0,4050.0,1876.0,2051.0,3049528.0,
2475.0,4051.0,1866.0,2050.0,3049532.0,
2475.0,4050.0,1857.0,2047.0,3049536.0,
2473.0,4050.0,1851.0,2048.0,3049540.0,
2471.0,4052.0,1843.0,2048.0,3049544.0,
2471.0,4050.0,1836.0,2045.0,3049547.0,
2474.0,4053.0,1827.0,2046.0,3049551.0,
2477.0,4051.0,1819.0,2046.0,3049555.0,
2475.0,4050.0,1812.0,2045.0,3049559.0,
2471.0,4051.0,1810.0,2047.0,3049563.0,
2470.0,4051.0,1809.0,2043.0,3049566.0,
2473.0,4049.0,1804.0,2045.0,3049570.0,
2476.0,4054.0,1804.0,2046.0,3049575.0,
2474.0,4051.0,1803.0,2047.0,3049579.0,
2471.0,4052.0,1804.0,2045.0,3049583.0,
2471.0,4051.0,1805.0,2046.0,3049587.0,
2474.0,4052.0,1808.0,2046.0,3049591.0,
2476.0,4051.0,1811.0,2047.0,3049594.0,
2476.0,4051.0,1816.0,2043.0,3049598.0,
2472.0,4050.0,1822.0,2043.0,3049602.0,
2471.0,4052.0,1826.0,2045.0,3049606.0,
2474.0,4052.0,1829.0,2046.0,3049610.0,
2476.0,4053.0,1835.0,2045.0,3049614.0,
2476.0,4052.0,1841.0,2044.0,3049618.0,
2472.0,4051.0,1848.0,2043.0,3049621.0,
2472.0,4053.0,1853.0,2045.0,3049625.0,
2474.0,4051.0,1858.0,2046.0,3049629.0,
2476.0,4052.0,1859.0,2044.0,3049633.0,
2476.0,4052.0,1864.0,2040.0,3049637.0,
2473.0,4051.0,1870.0,2043.0,3049641.0,
2471.0,4052.0,1873.0,2042.0,3049644.0,
2473.0,4050.0,1880.0,2040.0,3049648.0,
2476.0,4054.0,1888.0,2041.0,3049652.0,
2476.0,4050.0,1895.0,2039.0,3049656.0,
2473.0,4051.0,1903.0,2038.0,3049661.0,
2471.0,4052.0,1909.0,2035.0,3049664.0,
2472.0,4053.0,1915.0,2033.0,3049668.0,
2475.0,4051.0,1921.0,2030.0,3049672.0,
2475.0,4050.0,1924.0,2031.0,3049676.0,
2473.0,4051.0,1930.0,2030.0,3049680.0,
2471.0,4050.0,1930.0,2029.0,3049683.0,
2470.0,4052.0,1934.0,2027.0,3049687.0,
2475.0,4051.0,1934.0,2022.0,3049691.0,
2476.0,4051.0,1935.0,2024.0,3049695.0,
2476.0,4052.0,1931.0,2021.0,3049699.0,
2472.0,4051.0,1930.0,2020.0,3049702.0,
2470.0,4052.0,1927.0,2018.0,3049706.0,
2474.0,4051.0,1923.0,2018.0,3049710.0,
2477.0,4053.0,1919.0,2017.0,3049714.0,
2474.0,4051.0,1914.0,2013.0,3049718.0,
2472.0,4050.0,1909.0,2011.0,3049722.0,
2471.0,4052.0,1904.0,2011.0,3049726.0,
2473.0,4051.0,1894.0,2007.0,3049730.0,
2476.0,4052.0,1886.0,2008.0,3049733.0,
2476.0,4051.0,1875.0,2007.0,3049737.0,
2472.0,4053.0,1866.0,2008.0,3049741.0,
2469.0,4050.0,1855.0,2005.0,3049745.0,
2473.0,4051.0,1845.0,2005.0,3049749.0,
2474.0,4053.0,1837.0,2005.0,3049753.0,
2476.0,4051.0,1834.0,2005.0,3049757.0,
2473.0,4050.0,1827.0,2003.0,3049761.0,
2470.0,4051.0,1828.0,2007.0,3049764.0,
2473.0,4050.0,1826.0,2002.0,3049768.0,
2475.0,4052.0,1818.0,2003.0,3049772.0,
2476.0,4052.0,1814.0,2002.0,3049776.0,
2472.0,4050.0,1811.0,2002.0,3049779.0,
2470.0,4052.0,1807.0,2002.0,3049784.0,
2472.0,4050.0,1804.0,2002.0,3049788.0,
2475.0,4050.0,1797.0,2000.0,3049792.0,
2475.0,4050.0,1792.0,2000.0,3049797.0,
2470.0,4050.0,1792.0,1999.0,3049801.0,
2470.0,4051.0,1788.0,1997.0,3049804.0,
2472.0,4054.0,1787.0,2001.0,3049809.0,
2477.0,4053.0,1789.0,1999.0,3049813.0,
2476.0,4052.0,1787.0,2001.0,3049817.0,
2473.0,4052.0,1787.0,2001.0,3049821.0,
2471.0,4052.0,1790.0,2002.0,3049825.0,
2473.0,4051.0,1793.0,2000.0,3049829.0,
2476.0,4051.0,1794.0,2000.0,3049833.0,
2476.0,4050.0,1792.0,1999.0,3049837.0,
2473.0,4051.0,1792.0,2000.0,3049841.0,
2470.0,4049.0,1794.0,2002.0,3049845.0,
2474.0,4052.0,1796.0,2000.0,3049848.0,
2475.0,4052.0,1798.0,2000.0,3049852.0,
2477.0,4052.0,1801.0,2002.0,3049856.0,
2473.0,4050.0,1805.0,1997.0,3049860.0,
2471.0,4050.0,1806.0,2001.0,3049864.0,
2472.0,4051.0,1809.0,1997.0,3049868.0,
2476.0,4052.0,1809.0,1997.0,3049872.0,
2476.0,4051.0,1812.0,1998.0,3049875.0,
2473.0,4051.0,1811.0,1996.0,3049879.0,
2471.0,4051.0,1811.0,1999.0,3049883.0,
2471.0,4049.0,1817.0,1995.0,3049887.0,
2475.0,4051.0,1817.0,1998.0,3049891.0,
2475.0,4051.0,1818.0,1998.0,3049895.0,
2474.0,4050.0,1820.0,1998.0,3049899.0,
2471.0,4051.0,1818.0,1997.0,3049903.0,
2471.0,4050.0,1823.0,1997.0,3049907.0,
2474.0,4050.0,1818.0,1997.0,3049911.0,
2477.0,4051.0,1824.0,2000.0,3049915.0,
2474.0,4051.0,1825.0,1997.0,3049919.0,
2470.0,4051.0,1826.0,1997.0,3049922.0,
2471.0,4053.0,1827.0,1997.0,3049926.0,
2474.0,4051.0,1829.0,1995.0,3049930.0,
2476.0,4051.0,1822.0,1996.0,3049934.0,
2475.0,4051.0,1820.0,1995.0,3049938.0,
2470.0,4051.0,1817.0,1993.0,3049942.0,
2470.0,4051.0,1814.0,1994.0,3049946.0,
2474.0,4051.0,1808.0,1994.0,3049950.0,
2476.0,4052.0,1807.0,1995.0,3049954.0,
2475.0,4050.0,1807.0,1995.0,3049957.0,
2471.0,4051.0,1803.0,1998.0,3049961.0,
2471.0,4051.0,1799.0,2000.0,3049965.0,
2472.0,4051.0,1799.0,2002.0,3049969.0,
2476.0,4051.0,1794.0,2004.0,3049973.0,
2476.0,4052.0,1794.0,2008.0,3049977.0,
2473.0,4052.0,1794.0,2013.0,3049981.0,
2470.0,4050.0,1794.0,2014.0,3049985.0,
2473.0,4052.0,1794.0,2021.0,3049989.0,
2476.0,4053.0,1794.0,2027.0,3049993.0,
2476.0,4052.0,1796.0,2034.0,3049997.0,
2473.0,4053.0,1794.0,2039.0,3050000.0,
2471.0,4051.0,1794.0,2053.0,3050004.0,
2472.0,4051.0,1797.0,2054.0,3050008.0,
2475.0,4050.0,1797.0,2063.0,3050012.0,
2476.0,4051.0,1800.0,2070.0,3050016.0,
2473.0,4051.0,1804.0,2080.0,3050020.0,
2471.0,4051.0,1810.0,2088.0,3050024.0,
2470.0,4052.0,1815.0,2095.0,3050027.0,
2476.0,4051.0,1824.0,2103.0,3050031.0,
2477.0,4052.0,1835.0,2109.0,3050035.0,
2474.0,4050.0,1845.0,2116.0,3050039.0,
2470.0,4052.0,1855.0,2128.0,3050043.0,
2471.0,4051.0,1871.0,2133.0,3050047.0,
2473.0,4052.0,1886.0,2141.0,3050051.0,
2476.0,4050.0,1907.0,2145.0,3050055.0,
2474.0,4052.0,1927.0,2152.0,3050059.0,
2471.0,4051.0,1951.0,2157.0,3050062.0,
2471.0,4050.0,1975.0,2159.0,3050066.0,
2475.0,4052.0,1998.0,2167.0,3050070.0,
2477.0,4052.0,2027.0,2170.0,3050074.0,
2475.0,4050.0,2054.0,2171.0,3050078.0,
2472.0,4052.0,2078.0,2178.0,3050082.0,
2472.0,4050.0,2105.0,2177.0,3050086.0,
2474.0,4051.0,2127.0,2182.0,3050090.0,
2476.0,4050.0,2151.0,2179.0,3050093.0,
2476.0,4053.0,2176.0,2186.0,3050097.0,
2472.0,4050.0,2203.0,2185.0,3050101.0,
2470.0,4050.0,2223.0,2186.0,3050105.0,
2472.0,4053.0,2242.0,2185.0,3050109.0,
2476.0,4051.0,2263.0,2185.0,3050113.0,
2476.0,4052.0,2281.0,2183.0,3050117.0,
2472.0,4051.0,2299.0,2181.0,3050120.0,
2470.0,4051.0,2314.0,2182.0,3050124.0,
2473.0,4052.0,2326.0,2180.0,3050128.0,
2475.0,4050.0,2338.0,2181.0,3050132.0,
2477.0,4051.0,2348.0,2178.0,3050136.0,
2474.0,4052.0,2354.0,2178.0,3050140.0,
2470.0,4050.0,2357.0,2174.0,3050144.0,
2474.0,4052.0,2360.0,2175.0,3050147.0,
2476.0,4050.0,2362.0,2172.0,3050151.0,
2476.0,4051.0,2360.0,2167.0,3050155.0,
2474.0,4050.0,2358.0,2169.0,3050159.0,
2471.0,4051.0,2350.0,2166.0,3050163.0,
2472.0,4052.0,2342.0,2163.0,3050167.0,
2475.0,4051.0,2333.0,2160.0,3050171.0,
2477.0,4052.0,2322.0,2161.0,3050175.0,
2474.0,4051.0,2311.0,2155.0,3050179.0,
2471.0,4052.0,2301.0,2153.0,3050183.0,
2473.0,4050.0,2286.0,2149.0,3050187.0,
2474.0,4052.0,2272.0,2145.0,3050190.0,
2476.0,4052.0,2255.0,2143.0,3050195.0,
2475.0,4050.0,2242.0,2137.0,3050198.0,
2471.0,4052.0,2228.0,2135.0,3050202.0,
2471.0,4052.0,2218.0,2131.0,3050206.0,
2473.0,4051.0,2205.0,2128.0,3050210.0,
2476.0,4050.0,2190.0,2124.0,3050214.0,
2476.0,4050.0,2179.0,2119.0,3050218.0,
2470.0,4051.0,2163.0,2115.0,3050221.0,
2471.0,4052.0,2153.0,2109.0,3050225.0,
2473.0,4050.0,2135.0,2108.0,3050229.0,
2477.0,4053.0,2120.0,2103.0,3050233.0,
2475.0,4051.0,2106.0,2096.0,3050237.0,
2472.0,4051.0,2094.0,2094.0,3050241.0,
2471.0,4050.0,2077.0,2087.0,3050245.0,
2473.0,4051.0,2061.0,2083.0,3050249.0,
2475.0,4051.0,2048.0,2082.0,3050253.0,
2475.0,4051.0,2034.0,2078.0,3050257.0,
2471.0,4051.0,2021.0,2073.0,3050261.0,
2471.0,4051.0,2009.0,2071.0,3050265.0,
2473.0,4051.0,1993.0,2065.0,3050269.0,
2476.0,4052.0,1983.0,2062.0,3050273.0,
2477.0,4050.0,1979.0,2060.0,3050277.0,
2472.0,4052.0,1968.0,2059.0,3050281.0,
2472.0,4050.0,1958.0,2056.0,3050285.0,
2473.0,4052.0,1946.0,2053.0,3050288.0,
2476.0,4053.0,1939.0,2053.0,3050292.0,
2476.0,4051.0,1930.0,2052.0,3050296.0,
2472.0,4051.0,1922.0,2049.0,3050300.0,
2470.0,4052.0,1910.0,2051.0,3050304.0,
2473.0,4051.0,1901.0,2051.0,3050308.0,
2475.0,4052.0,1893.0,2052.0,3050312.0,
2476.0,4051.0,1890.0,2051.0,3050316.0,
2474.0,4052.0,1883.0,2054.0,3050320.0,
2471.0,4052.0,1880.0,2051.0,3050323.0,
2472.0,4053.0,1877.0,2053.0,3050327.0,
2476.0,4051.0,1873.0,2055.0,3050331.0,
2477.0,4052.0,1873.0,2053.0,3050335.0,
2473.0,4051.0,1873.0,2051.0,3050339.0,
2471.0,4051.0,1873.0,2053.0,3050343.0,
2472.0,4051.0,1874.0,2053.0,3050346.0,
2475.0,4051.0,1876.0,2052.0,3050350.0,
2477.0,4049.0,1880.0,2049.0,3050354.0,
2471.0,4050.0,1881.0,2052.0,3050358.0,
2471.0,4051.0,1886.0,2050.0,3050362.0,
2470.0,4050.0,1888.0,2048.0,3050366.0,
2474.0,4052.0,1894.0,2049.0,3050370.0,
2476.0,4051.0,1897.0,2048.0,3050374.0,
2474.0,4052.0,1899.0,2048.0,3050377.0,
2472.0,4050.0,1902.0,2044.0,3050381.0,
2471.0,4050.0,1907.0,2040.0,3050385.0,
2473.0,4050.0,1906.0,2039.0,3050389.0,
2477.0,4051.0,1909.0,2035.0,3050393.0,
2476.0,4051.0,1914.0,2034.0,3050397.0,
2473.0,4050.0,1920.0,2034.0,3050400.0,
2471.0,4052.0,1919.0,2033.0,3050404.0,
2472.0,4051.0,1925.0,2027.0,3050408.0,
2475.0,4051.0,1929.0,2027.0,3050412.0,
2475.0,4051.0,1935.0,2026.0,3050416.0,
2473.0,4050.0,1935.0,2024.0,3050419.0,
2469.0,4053.0,1942.0,2025.0,3050423.0,
2472.0,4051.0,1945.0,2024.0,3050427.0,
2475.0,4051.0,1948.0,2023.0,3050431.0,
2476.0,4051.0,1951.0,2022.0,3050435.0,
2473.0,4051.0,1950.0,2018.0,3050439.0,
2470.0,4052.0,1949.0,2019.0,3050443.0,
2471.0,4051.0,1949.0,2019.0,3050447.0,
2475.0,4053.0,1948.0,2021.0,3050451.0,
2477.0,4052.0,1948.0,2019.0,3050455.0,
2473.0,4051.0,1945.0,2018.0,3050459.0,
2471.0,4053.0,1942.0,2016.0,3050463.0,
2472.0,4053.0,1939.0,2016.0,3050467.0,
2475.0,4052.0,1936.0,2014.0,3050470.0,
2477.0,4050.0,1933.0,2012.0,3050474.0,
2475.0,4051.0,1932.0,2012.0,3050478.0,
2472.0,4050.0,1932.0,2011.0,3050482.0,
2471.0,4050.0,1928.0,2012.0,3050486.0,
2474.0,4051.0,1926.0,2009.0,3050490.0,
2475.0,4052.0,1924.0,2008.0,3050494.0,
2475.0,4051.0,1926.0,2007.0,3050497.0,
2471.0,4053.0,1920.0,2009.0,3050501.0,
2472.0,4051.0,1919.0,2008.0,3050505.0,
2474.0,4051.0,1914.0,2006.0,3050509.0,
2477.0,4050.0,1909.0,2005.0,3050513.0,
2475.0,4053.0,1904.0,2009.0,3050517.0,
2471.0,4053.0,1897.0,2006.0,3050521.0,
2470.0,4051.0,1891.0,2005.0,3050525.0,
2474.0,4053.0,1885.0,2007.0,3050529.0,
2477.0,4052.0,1879.0,2002.0,3050533.0,
2475.0,4052.0,1875.0,2007.0,3050536.0,
2472.0,4052.0,1871.0,2001.0,3050540.0,
2470.0,4051.0,1863.0,2002.0,3050544.0,
2473.0,4051.0,1864.0,2003.0,3050548.0,
2476.0,4050.0,1864.0,2002.0,3050552.0,
2476.0,4051.0,1859.0,2000.0,3050556.0,
2472.0,4052.0,1856.0,2000.0,3050560.0,
2470.0,4051.0,1853.0,1997.0,3050564.0,
2472.0,4051.0,1854.0,1999.0,3050568.0,
2476.0,4051.0,1851.0,1997.0,3050572.0,
2476.0,4050.0,1851.0,1997.0,3050575.0,
2473.0,4052.0,1850.0,1999.0,3050579.0,
2471.0,4051.0,1851.0,1998.0,3050583.0,
2472.0,4051.0,1852.0,1996.0,3050587.0,
2478.0,4050.0,1853.0,1994.0,3050591.0,
2476.0,4051.0,1853.0,1995.0,3050595.0,
2474.0,4051.0,1851.0,1993.0,3050599.0,
2471.0,4050.0,1855.0,1994.0,3050602.0,
2471.0,4052.0,1852.0,1994.0,3050606.0,
2476.0,4051.0,1849.0,1993.0,3050610.0,
2476.0,4052.0,1847.0,1994.0,3050614.0,
2474.0,4051.0,1847.0,1992.0,3050618.0,
2470.0,4049.0,1846.0,1989.0,3050622.0,
2472.0,4050.0,1843.0,1991.0,3050626.0,
2474.0,4050.0,1843.0,1992.0,3050630.0,
2477.0,4051.0,1843.0,1992.0,3050634.0,
2475.0,4051.0,1838.0,1993.0,3050637.0,
2471.0,4052.0,1837.0,1991.0,3050641.0,
2471.0,4051.0,1838.0,1992.0,3050645.0,
2473.0,4052.0,1837.0,1991.0,3050649.0,
2476.0,4052.0,1836.0,1989.0,3050653.0,
2476.0,4051.0,1835.0,1989.0,3050657.0,
2471.0,4053.0,1834.0,1990.0,3050661.0,
2471.0,4052.0,1831.0,1989.0,3050665.0,
2473.0,4051.0,1831.0,1989.0,3050669.0,
2476.0,4054.0,1835.0,1988.0,3050672.0,
2475.0,4052.0,1833.0,1987.0,3050676.0,
2472.0,4050.0,1834.0,1988.0,3050680.0,
2471.0,4051.0,1836.0,1987.0,3050684.0,
2473.0,4051.0,1835.0,1988.0,3050688.0,
2475.0,4049.0,1834.0,1985.0,3050692.0,
2476.0,4052.0,1836.0,1988.0,3050695.0,
2472.0,4052.0,1837.0,1990.0,3050699.0,
2470.0,4050.0,1844.0,1989.0,3050703.0,
2473.0,4051.0,1844.0,1992.0,3050707.0,
2475.0,4051.0,1844.0,1992.0,3050711.0,
2475.0,4051.0,1848.0,1990.0,3050715.0,
2473.0,4050.0,1850.0,1995.0,3050719.0,
2470.0,4051.0,1852.0,1994.0,3050722.0,
2472.0,4051.0,1857.0,1993.0,3050726.0,
2475.0,4052.0,1861.0,1996.0,3050730.0,
2476.0,4051.0,1864.0,1996.0,3050734.0,
2474.0,4051.0,1866.0,2000.0,3050738.0,
2471.0,4051.0,1866.0,1998.0,3050742.0,
2470.0,4050.0,1871.0,2003.0,3050746.0,
2474.0,4050.0,1874.0,2005.0,3050749.0,
2477.0,4053.0,1877.0,2009.0,3050753.0,
2475.0,4051.0,1878.0,2012.0,3050757.0,
2471.0,4052.0,1882.0,2017.0,3050761.0,
2471.0,4052.0,1882.0,2021.0,3050765.0,
2473.0,4052.0,1880.0,2025.0,3050769.0,
2476.0,4052.0,1881.0,2032.0,3050773.0,
2475.0,4052.0,1879.0,2039.0,3050777.0,
2474.0,4053.0,1876.0,2049.0,3050781.0,
2470.0,4051.0,1879.0,2052.0,3050785.0,
2474.0,4052.0,1878.0,2067.0,3050789.0,
2476.0,4051.0,1881.0,2070.0,3050793.0,
2473.0,4053.0,1881.0,2079.0,3050797.0,
2472.0,4051.0,1882.0,2085.0,3050800.0,
2471.0,4052.0,1883.0,2095.0,3050805.0,
2473.0,4052.0,1890.0,2103.0,3050808.0,
2476.0,4052.0,1894.0,2110.0,3050813.0,
2475.0,4051.0,1903.0,2119.0,3050816.0,
2472.0,4051.0,1914.0,2124.0,3050820.0,
2471.0,4050.0,1925.0,2132.0,3050825.0,
2474.0,4053.0,1939.0,2138.0,3050829.0,
2477.0,4051.0,1954.0,2141.0,3050833.0,
2475.0,4053.0,1977.0,2147.0,3050837.0,
2471.0,4051.0,1991.0,2152.0,3050840.0,
2471.0,4052.0,2008.0,2154.0,3050844.0,
2474.0,4051.0,2030.0,2158.0,3050848.0,
2475.0,4050.0,2052.0,2161.0,3050852.0,
2475.0,4052.0,2073.0,2163.0,3050856.0,
2472.0,4052.0,2097.0,2164.0,3050860.0,
2471.0,4053.0,2121.0,2166.0,3050864.0,
2474.0,4050.0,2142.0,2163.0,3050868.0,
2477.0,4052.0,2166.0,2170.0,3050872.0,
2475.0,4052.0,2184.0,2165.0,3050876.0,
2472.0,4052.0,2206.0,2167.0,3050880.0,
2470.0,4051.0,2226.0,2163.0,3050884.0,
2473.0,4052.0,2242.0,2164.0,3050888.0,
2476.0,4051.0,2261.0,2162.0,3050892.0,
2474.0,4052.0,2275.0,2159.0,3050896.0,
2472.0,4051.0,2291.0,2157.0,3050899.0,
2471.0,4053.0,2299.0,2156.0,3050903.0,
2473.0,4051.0,2314.0,2156.0,3050907.0,
2476.0,4052.0,2325.0,2149.0,3050911.0,
2476.0,4051.0,2336.0,2150.0,3050915.0,
2475.0,4049.0,2342.0,2146.0,3050919.0,
2472.0,4053.0,2347.0,2145.0,3050923.0,
2473.0,4050.0,2350.0,2140.0,3050927.0,
2476.0,4052.0,2350.0,2140.0,3050931.0,
2476.0,4051.0,2350.0,2135.0,3050934.0,
2474.0,4052.0,2350.0,2136.0,3050938.0,
2471.0,4050.0,2342.0,2132.0,3050942.0,
2472.0,4052.0,2335.0,2132.0,3050946.0,
2475.0,4051.0,2328.0,2127.0,3050950.0,
2476.0,4052.0,2320.0,2126.0,3050954.0,
2474.0,4051.0,2311.0,2122.0,3050957.0,
2472.0,4052.0,2300.0,2117.0,3050961.0,
2472.0,4052.0,2291.0,2115.0,3050965.0,
2475.0,4052.0,2280.0,2115.0,3050969.0,
2476.0,4051.0,2267.0,2107.0,3050973.0,
2474.0,4051.0,2253.0,2104.0,3050977.0,
2471.0,4050.0,2238.0,2097.0,3050981.0,
2471.0,4052.0,2221.0,2095.0,3050984.0,
2474.0,4051.0,2209.0,2094.0,3050988.0,
2477.0,4051.0,2196.0,2087.0,3050992.0,
2476.0,4051.0,2178.0,2081.0,3050996.0,
2472.0,4053.0,2160.0,2078.0,3051000.0,
2471.0,4051.0,2147.0,2073.0,3051004.0,
2474.0,4052.0,2133.0,2071.0,3051008.0,
2477.0,4050.0,2120.0,2065.0,3051011.0,
2477.0,4052.0,2103.0,2063.0,3051015.0,
2473.0,4052.0,2086.0,2060.0,3051019.0,
2471.0,4050.0,2073.0,2058.0,3051023.0,
2473.0,4054.0,2059.0,2055.0,3051027.0,
2477.0,4049.0,2049.0,2051.0,3051031.0,
2476.0,4052.0,2036.0,2048.0,3051034.0,
2473.0,4051.0,2026.0,2047.0,3051038.0,
2471.0,4051.0,2013.0,2045.0,3051042.0,
2471.0,4051.0,1999.0,2043.0,3051046.0,
2475.0,4051.0,1981.0,2041.0,3051050.0,
2475.0,4051.0,1970.0,2038.0,3051054.0,
2474.0,4052.0,1958.0,2039.0,3051058.0,
2471.0,4052.0,1946.0,2037.0,3051062.0,
2472.0,4052.0,1938.0,2038.0,3051065.0,
2476.0,4052.0,1926.0,2038.0,3051069.0,
2476.0,4052.0,1916.0,2033.0,3051073.0,
2474.0,4051.0,1908.0,2035.0,3051077.0,
2471.0,4050.0,1902.0,2036.0,3051081.0,
2471.0,4050.0,1893.0,2032.0,3051085.0,
2474.0,4051.0,1886.0,2034.0,3051089.0,
2476.0,4051.0,1881.0,2034.0,3051093.0,
2475.0,4052.0,1882.0,2032.0,3051096.0,
2472.0,4053.0,1875.0,2031.0,3051100.0,
2471.0,4053.0,1873.0,2033.0,3051104.0,
2473.0,4052.0,1874.0,2031.0,3051108.0,
2477.0,4053.0,1873.0,2029.0,3051112.0,
2476.0,4051.0,1874.0,2030.0,3051116.0,
2472.0,4051.0,1880.0,2029.0,3051119.0,
2471.0,4051.0,1880.0,2029.0,3051123.0,
2473.0,4052.0,1882.0,2030.0,3051127.0,
2476.0,4052.0,1886.0,2031.0,3051131.0,
2475.0,4051.0,1890.0,2029.0,3051135.0,
2473.0,4051.0,1892.0,2028.0,3051139.0,
2471.0,4050.0,1896.0,2024.0,3051143.0,
2473.0,4050.0,1900.0,2022.0,3051147.0,
2476.0,4051.0,1906.0,2024.0,3051151.0,
2477.0,4050.0,1911.0,2024.0,3051155.0,
2473.0,4051.0,1919.0,2024.0,3051159.0,
2470.0,4049.0,1920.0,2024.0,3051163.0,
2472.0,4051.0,1929.0,2025.0,3051166.0,
2476.0,4051.0,1935.0,2029.0,3051170.0,
2476.0,4051.0,1941.0,2021.0,3051174.0,
2473.0,4051.0,1946.0,2024.0,3051178.0,
2471.0,4051.0,1950.0,2021.0,3051182.0,
2472.0,4053.0,1955.0,2024.0,3051186.0,
2476.0,4052.0,1964.0,2024.0,3051190.0,
2476.0,4052.0,1970.0,2022.0,3051194.0,
2473.0,4052.0,1972.0,2019.0,3051198.0,
2471.0,4052.0,1977.0,2020.0,3051201.0,
2471.0,4051.0,1979.0,2021.0,3051205.0,
2474.0,4049.0,1985.0,2018.0,3051209.0,
2477.0,4051.0,1987.0,2019.0,3051213.0,
2474.0,4052.0,1986.0,2015.0,3051217.0,
2471.0,4051.0,1988.0,2013.0,3051221.0,
2471.0,4051.0,1988.0,2013.0,3051224.0,
2474.0,4052.0,1988.0,2014.0,3051228.0,
2476.0,4051.0,1993.0,2012.0,3051232.0,
2475.0,4051.0,1991.0,2008.0,3051236.0,
2474.0,4051.0,1991.0,2010.0,3051240.0,
2471.0,4051.0,1994.0,2010.0,3051243.0,
2473.0,4050.0,1988.0,2009.0,3051247.0,
2476.0,4050.0,1984.0,2008.0,3051251.0,
2473.0,4052.0,1981.0,2006.0,3051255.0,
2473.0,4051.0,1973.0,2004.0,3051259.0,
2471.0,4051.0,1966.0,2003.0,3051263.0,
2473.0,4052.0,1962.0,2002.0,3051267.0,
2475.0,4051.0,1957.0,2002.0,3051270.0,
2475.0,4052.0,1950.0,2002.0,3051274.0,
2472.0,4050.0,1946.0,2001.0,3051278.0,
2471.0,4051.0,1941.0,2001.0,3051282.0,
2473.0,4051.0,1941.0,1998.0,3051286.0,
2475.0,4051.0,1933.0,2000.0,3051290.0,
2478.0,4052.0,1929.0,1998.0,3051293.0,
2473.0,4051.0,1926.0,1997.0,3051297.0,
2471.0,4050.0,1920.0,1997.0,3051301.0,
2471.0,4051.0,1916.0,1997.0,3051305.0,
2475.0,4051.0,1912.0,1997.0,3051309.0,
2476.0,4051.0,1904.0,1997.0,3051313.0,
2474.0,4052.0,1900.0,1997.0,3051317.0,
2471.0,4051.0,1896.0,1998.0,3051321.0,
2472.0,4050.0,1891.0,1998.0,3051325.0,
2475.0,4050.0,1888.0,1999.0,3051329.0,
2477.0,4049.0,1880.0,1998.0,3051333.0,
2474.0,4051.0,1879.0,1998.0,3051337.0,
2471.0,4050.0,1873.0,1996.0,3051341.0,
2470.0,4051.0,1872.0,1995.0,3051345.0,
2475.0,4051.0,1867.0,1996.0,3051348.0,
2476.0,4052.0,1865.0,1994.0,3051352.0,
2475.0,4051.0,1860.0,1993.0,3051356.0,
2472.0,4050.0,1857.0,1992.0,3051360.0,
2470.0,4049.0,1854.0,1992.0,3051364.0,
2472.0,4051.0,1852.0,1993.0,3051367.0,
2477.0,4052.0,1851.0,1990.0,3051371.0,
2476.0,4052.0,1848.0,1991.0,3051375.0,
2472.0,4053.0,1850.0,1990.0,3051379.0,
2470.0,4051.0,1849.0,1990.0,3051383.0,
2472.0,4052.0,1846.0,1988.0,3051386.0,
2476.0,4052.0,1849.0,1987.0,3051390.0,
2476.0,4051.0,1846.0,1986.0,3051394.0,
2472.0,4051.0,1851.0,1986.0,3051398.0,
2471.0,4050.0,1850.0,1983.0,3051402.0,
2472.0,4051.0,1855.0,1982.0,3051406.0,
2475.0,4052.0,1859.0,1982.0,3051409.0,
2476.0,4050.0,1861.0,1983.0,3051413.0,
2474.0,4052.0,1865.0,1981.0,3051417.0,
2471.0,4052.0,1869.0,1981.0,3051421.0,
2472.0,4053.0,1872.0,1981.0,3051425.0,
2472.0,4052.0,1873.0,1981.0,3051428.0,
2477.0,4052.0,1879.0,1980.0,3051432.0,
2475.0,4051.0,1883.0,1976.0,3051436.0,
2472.0,4051.0,1883.0,1981.0,3051440.0,
2471.0,4050.0,1884.0,1982.0,3051444.0,
2473.0,4051.0,1886.0,1981.0,3051448.0,
2475.0,4051.0,1884.0,1982.0,3051452.0,
2475.0,4051.0,1883.0,1985.0,3051455.0,
2472.0,4054.0,1881.0,1988.0,3051459.0,
2471.0,4051.0,1882.0,1990.0,3051463.0,
2474.0,4050.0,1880.0,1987.0,3051467.0,
2475.0,4049.0,1878.0,1992.0,3051471.0,
2476.0,4050.0,1877.0,1995.0,3051475.0,
2473.0,4050.0,1872.0,1999.0,3051479.0,
2471.0,4052.0,1869.0,2005.0,3051483.0,
2473.0,4050.0,1865.0,2011.0,3051487.0,
2475.0,4051.0,1868.0,2015.0,3051490.0,
2476.0,4051.0,1867.0,2023.0,3051494.0,
2473.0,4051.0,1866.0,2027.0,3051498.0,
2470.0,4050.0,1864.0,2030.0,3051502.0,
2472.0,4052.0,1868.0,2042.0,3051506.0,
2476.0,4051.0,1866.0,2050.0,3051510.0,
2476.0,4052.0,1869.0,2059.0,3051513.0,
2473.0,4051.0,1870.0,2067.0,3051517.0,
2471.0,4050.0,1876.0,2074.0,3051521.0,
2471.0,4050.0,1882.0,2083.0,3051525.0,
2475.0,4052.0,1886.0,2091.0,3051529.0,
2476.0,4051.0,1894.0,2101.0,3051533.0,
2474.0,4052.0,1902.0,2106.0,3051537.0,
2471.0,4051.0,1914.0,2115.0,3051541.0,
2472.0,4052.0,1926.0,2122.0,3051544.0,
2474.0,4053.0,1943.0,2130.0,3051548.0,
2476.0,4050.0,1965.0,2134.0,3051552.0,
2474.0,4052.0,1977.0,2142.0,3051556.0,
2470.0,4052.0,2004.0,2146.0,3051560.0,
2471.0,4051.0,2028.0,2153.0,3051564.0,
2474.0,4052.0,2053.0,2156.0,3051568.0,
2477.0,4051.0,2077.0,2160.0,3051572.0,
2476.0,4052.0,2108.0,2163.0,3051575.0,
2471.0,4052.0,2127.0,2166.0,3051579.0,
2470.0,4052.0,2156.0,2168.0,3051583.0,
2474.0,4052.0,2182.0,2169.0,3051587.0,
2477.0,4052.0,2206.0,2169.0,3051591.0,
2476.0,4051.0,2231.0,2170.0,3051595.0,
2472.0,4052.0,2257.0,2172.0,3051599.0,
2471.0,4051.0,2281.0,2169.0,3051603.0,
2470.0,4054.0,2305.0,2169.0,3051607.0,
2476.0,4051.0,2329.0,2167.0,3051610.0,
2477.0,4052.0,2349.0,2166.0,3051614.0,
2473.0,4053.0,2369.0,2166.0,3051618.0,
2472.0,4052.0,2385.0,2165.0,3051622.0,
2473.0,4050.0,2401.0,2162.0,3051626.0,
2473.0,4052.0,2413.0,2161.0,3051630.0,
2476.0,4051.0,2427.0,2158.0,3051633.0,
2475.0,4051.0,2436.0,2159.0,3051637.0,
2470.0,4051.0,2445.0,2156.0,3051641.0,
2472.0,4052.0,2452.0,2154.0,3051645.0,
2476.0,4052.0,2455.0,2152.0,3051648.0,
2479.0,4053.0,2459.0,2153.0,3051652.0,
2474.0,4052.0,2456.0,2150.0,3051656.0,
2473.0,4053.0,2454.0,2149.0,3051660.0,
2472.0,4051.0,2451.0,2142.0,3051664.0,
2473.0,4052.0,2443.0,2141.0,3051668.0,
2476.0,4050.0,2438.0,2139.0,3051671.0,
2475.0,4052.0,2427.0,2137.0,3051675.0,
2471.0,4052.0,2416.0,2133.0,3051679.0,
2470.0,4052.0,2402.0,2128.0,3051683.0,
2473.0,4051.0,2392.0,2123.0,3051687.0,
2476.0,4053.0,2380.0,2122.0,3051691.0,
2475.0,4050.0,2369.0,2114.0,3051695.0,
2472.0,4051.0,2356.0,2110.0,3051699.0,
2471.0,4050.0,2346.0,2107.0,3051703.0,
2473.0,4053.0,2335.0,2103.0,3051706.0,
2477.0,4050.0,2326.0,2099.0,3051710.0,
2475.0,4051.0,2310.0,2091.0,3051714.0,
2473.0,4053.0,2297.0,2089.0,3051718.0,
2470.0,4051.0,2283.0,2084.0,3051722.0,
2472.0,4052.0,2267.0,2076.0,3051726.0,
2475.0,4052.0,2252.0,2073.0,3051730.0,
2475.0,4052.0,2238.0,2071.0,3051733.0,
2472.0,4053.0,2217.0,2067.0,3051737.0,
2471.0,4053.0,2204.0,2065.0,3051741.0,
2473.0,4051.0,2190.0,2059.0,3051745.0,
2474.0,4052.0,2175.0,2057.0,3051749.0,
2475.0,4050.0,2160.0,2053.0,3051753.0,
2473.0,4053.0,2139.0,2052.0,3051757.0,
2470.0,4051.0,2126.0,2047.0,3051760.0,
2471.0,4051.0,2105.0,2045.0,3051764.0,
2474.0,4051.0,2089.0,2041.0,3051768.0,
2476.0,4052.0,2072.0,2042.0,3051772.0,
2474.0,4051.0,2059.0,2038.0,3051776.0,
2470.0,4053.0,2044.0,2035.0,3051779.0,
2471.0,4052.0,2030.0,2033.0,3051783.0,
2473.0,4051.0,2022.0,2031.0,3051787.0,
2477.0,4052.0,2013.0,2030.0,3051791.0,
2475.0,4051.0,1999.0,2029.0,3051795.0,
2471.0,4050.0,1991.0,2028.0,3051799.0,
2470.0,4052.0,1982.0,2027.0,3051802.0,
2470.0,4052.0,1972.0,2027.0,3051806.0,
2475.0,4053.0,1960.0,2024.0,3051810.0,
2475.0,4053.0,1954.0,2027.0,3051814.0,
2472.0,4051.0,1947.0,2025.0,3051818.0,
2470.0,4051.0,1944.0,2027.0,3051822.0,
2473.0,4051.0,1938.0,2026.0,3051826.0,
2475.0,4050.0,1932.0,2028.0,3051830.0,
2475.0,4049.0,1930.0,2026.0,3051834.0,
2474.0,4051.0,1928.0,2027.0,3051838.0,
2471.0,4051.0,1924.0,2026.0,3051842.0,
2471.0,4050.0,1925.0,2028.0,3051846.0,
2475.0,4051.0,1926.0,2028.0,3051849.0,
2476.0,4051.0,1929.0,2027.0,3051853.0,
2476.0,4051.0,1931.0,2027.0,3051857.0,
2471.0,4051.0,1934.0,2029.0,3051861.0,
2472.0,4051.0,1937.0,2028.0,3051865.0,
2475.0,4048.0,1939.0,2024.0,3051868.0,
2477.0,4053.0,1942.0,2026.0,3051872.0,
2474.0,4053.0,1943.0,2028.0,3051876.0,
2472.0,4051.0,1952.0,2025.0,3051880.0,
2471.0,4052.0,1953.0,2026.0,3051884.0,
2475.0,4051.0,1959.0,2028.0,3051888.0,
2476.0,4050.0,1969.0,2027.0,3051892.0,
2474.0,4051.0,1979.0,2027.0,3051896.0,
2472.0,4051.0,1989.0,2029.0,3051900.0,
2471.0,4050.0,2000.0,2029.0,3051903.0,
2474.0,4053.0,2003.0,2027.0,3051907.0,
2476.0,4051.0,2008.0,2028.0,3051911.0,
2476.0,4050.0,2013.0,2026.0,3051915.0,
2472.0,4050.0,2017.0,2026.0,3051919.0,
2471.0,4050.0,2019.0,2023.0,3051923.0,
2472.0,4050.0,2018.0,2020.0,3051927.0,
2476.0,4051.0,2019.0,2022.0,3051930.0,
2476.0,4051.0,2021.0,2018.0,3051934.0,
2471.0,4052.0,2021.0,2019.0,3051938.0,
2471.0,4051.0,2021.0,2018.0,3051942.0,
2473.0,4050.0,2018.0,2018.0,3051946.0,
2476.0,4051.0,2017.0,2014.0,3051949.0,
2475.0,4052.0,2013.0,2013.0,3051953.0,
2473.0,4051.0,2012.0,2012.0,3051957.0,
2470.0,4051.0,2013.0,2010.0,3051961.0,
2470.0,4051.0,2010.0,2007.0,3051965.0,
2477.0,4050.0,2005.0,2006.0,3051968.0,
2477.0,4052.0,2001.0,2005.0,3051972.0,
2473.0,4051.0,1999.0,2005.0,3051976.0,
2471.0,4051.0,1992.0,2001.0,3051980.0,
2470.0,4051.0,1988.0,2002.0,3051984.0,
2475.0,4051.0,1985.0,2001.0,3051988.0,
2477.0,4052.0,1983.0,2000.0,3051991.0,
2477.0,4050.0,1981.0,1997.0,3051995.0,
2472.0,4051.0,1979.0,1995.0,3051999.0,
2472.0,4050.0,1977.0,1995.0,3052003.0,
2475.0,4050.0,1970.0,1995.0,3052007.0,
2476.0,4052.0,1971.0,1993.0,3052010.0,
2475.0,4051.0,1961.0,1991.0,3052014.0,
2473.0,4051.0,1959.0,1991.0,3052018.0,
2471.0,4051.0,1952.0,1988.0,3052022.0,
2474.0,4051.0,1951.0,1987.0,3052026.0,
2477.0,4052.0,1945.0,1987.0,3052029.0,
2476.0,4051.0,1937.0,1988.0,3052033.0,
2473.0,4054.0,1932.0,1986.0,3052037.0,
2471.0,4054.0,1930.0,1986.0,3052041.0,
2472.0,4051.0,1924.0,1983.0,3052045.0,
2475.0,4053.0,1917.0,1986.0,3052048.0,
2477.0,4053.0,1916.0,1985.0,3052052.0,
2474.0,4052.0,1912.0,1984.0,3052056.0,
2472.0,4053.0,1908.0,1984.0,3052060.0,
2472.0,4051.0,1903.0,1984.0,3052064.0,
2475.0,4052.0,1899.0,1983.0,3052067.0,
2477.0,4052.0,1897.0,1982.0,3052071.0,
2475.0,4050.0,1895.0,1980.0,3052075.0,
2472.0,4051.0,1894.0,1980.0,3052079.0,
2470.0,4051.0,1888.0,1978.0,3052083.0,
2474.0,4050.0,1885.0,1981.0,3052086.0,
2476.0,4054.0,1879.0,1981.0,3052090.0,
2478.0,4051.0,1877.0,1978.0,3052094.0,
2472.0,4051.0,1872.0,1977.0,3052098.0,
2472.0,4050.0,1871.0,1977.0,3052102.0,
2476.0,4052.0,1869.0,1978.0,3052105.0,
2477.0,4049.0,1870.0,1978.0,3052109.0,
2476.0,4050.0,1870.0,1977.0,3052113.0,
2473.0,4051.0,1875.0,1975.0,3052117.0,
2470.0,4051.0,1874.0,1975.0,3052121.0,
2472.0,4052.0,1873.0,1975.0,3052125.0,
2475.0,4050.0,1876.0,1974.0,3052128.0,
2477.0,4053.0,1879.0,1974.0,3052132.0,
2474.0,4050.0,1874.0,1975.0,3052136.0,
2471.0,4051.0,1878.0,1976.0,3052140.0,
2470.0,4050.0,1876.0,1977.0,3052144.0,
2475.0,4051.0,1875.0,1978.0,3052148.0,
2476.0,4050.0,1873.0,1979.0,3052151.0,
2475.0,4051.0,1874.0,1979.0,3052155.0,
2472.0,4051.0,1874.0,1979.0,3052159.0,
2472.0,4050.0,1875.0,1980.0,3052163.0,
2474.0,4052.0,1879.0,1978.0,3052167.0,
2480.0,4050.0,1878.0,1979.0,3052171.0,
2477.0,4051.0,1879.0,1981.0,3052174.0,
2472.0,4054.0,1878.0,1981.0,3052178.0,
2473.0,4050.0,1882.0,1983.0,3052182.0,
2473.0,4052.0,1882.0,1983.0,3052186.0,
2477.0,4050.0,1883.0,1984.0,3052190.0,
2478.0,4052.0,1885.0,1985.0,3052193.0,
2473.0,4051.0,1887.0,1988.0,3052197.0,
2471.0,4051.0,1886.0,1989.0,3052201.0,
2474.0,4049.0,1887.0,1991.0,3052205.0,
2476.0,4049.0,1886.0,1992.0,3052209.0,
2477.0,4051.0,1889.0,1993.0,3052213.0,
2475.0,4050.0,1889.0,1994.0,3052217.0,
2471.0,4050.0,1889.0,1996.0,3052220.0,
2473.0,4052.0,1889.0,2005.0,3052224.0,
2476.0,4052.0,1888.0,2007.0,3052228.0,
2477.0,4052.0,1890.0,2010.0,3052232.0,
2474.0,4051.0,1885.0,2017.0,3052236.0,
2472.0,4051.0,1886.0,2021.0,3052240.0,
2472.0,4050.0,1886.0,2028.0,3052243.0,
2475.0,4053.0,1885.0,2037.0,3052247.0,
2476.0,4052.0,1885.0,2042.0,3052251.0,
2476.0,4051.0,1886.0,2049.0,3052255.0,
2472.0,4052.0,1890.0,2059.0,3052259.0,
2471.0,4050.0,1891.0,2065.0,3052263.0,
2474.0,4052.0,1894.0,2076.0,3052266.0,
2476.0,4051.0,1899.0,2084.0,3052270.0,
2477.0,4050.0,1904.0,2092.0,3052274.0,
2473.0,4052.0,1911.0,2101.0,3052278.0,
2472.0,4051.0,1920.0,2110.0,3052282.0,
2474.0,4052.0,1928.0,2117.0,3052286.0,
2474.0,4052.0,1944.0,2126.0,3052289.0,
2477.0,4051.0,1963.0,2133.0,3052293.0,
2473.0,4051.0,1978.0,2140.0,3052297.0,
2471.0,4053.0,1998.0,2147.0,3052301.0,
2473.0,4050.0,2025.0,2153.0,3052305.0,
2477.0,4052.0,2051.0,2156.0,3052309.0,
2475.0,4051.0,2079.0,2161.0,3052313.0,
2474.0,4052.0,2104.0,2165.0,3052317.0,
2472.0,4050.0,2138.0,2169.0,3052320.0,
2473.0,4051.0,2170.0,2171.0,3052324.0,
2476.0,4050.0,2204.0,2173.0,3052328.0,
2477.0,4052.0,2238.0,2175.0,3052332.0,
2473.0,4050.0,2278.0,2179.0,3052336.0,
2474.0,4051.0,2313.0,2181.0,3052340.0,
2472.0,4051.0,2348.0,2180.0,3052343.0,
2476.0,4052.0,2382.0,2183.0,3052347.0,
2478.0,4052.0,2415.0,2183.0,3052351.0,
2475.0,4052.0,2448.0,2179.0,3052355.0,
2473.0,4052.0,2480.0,2181.0,3052359.0,
2472.0,4053.0,2511.0,2179.0,3052363.0,
2476.0,4053.0,2537.0,2180.0,3052367.0,
2476.0,4052.0,2571.0,2177.0,3052370.0,
2475.0,4051.0,2590.0,2178.0,3052374.0,
2474.0,4053.0,2615.0,2177.0,3052378.0,
2473.0,4052.0,2626.0,2173.0,3052382.0,
2475.0,4053.0,2644.0,2172.0,3052386.0,
2476.0,4051.0,2655.0,2172.0,3052389.0,
2477.0,4051.0,2663.0,2169.0,3052393.0,
2473.0,4051.0,2667.0,2168.0,3052397.0,
2472.0,4055.0,2668.0,2167.0,3052401.0,
2473.0,4050.0,2672.0,2164.0,3052405.0,
2477.0,4053.0,2669.0,2164.0,3052409.0,
2476.0,4051.0,2669.0,2161.0,3052412.0,
2475.0,4052.0,2665.0,2161.0,3052416.0,
2474.0,4052.0,2657.0,2161.0,3052420.0,
2473.0,4050.0,2648.0,2154.0,3052424.0,
2476.0,4053.0,2635.0,2154.0,3052428.0,
2476.0,4050.0,2623.0,2150.0,3052432.0,
2475.0,4053.0,2608.0,2148.0,3052435.0,
2471.0,4051.0,2593.0,2147.0,3052439.0,
2474.0,4051.0,2577.0,2141.0,3052443.0,
2476.0,4050.0,2562.0,2136.0,3052447.0,
2477.0,4052.0,2545.0,2135.0,3052451.0,
2476.0,4050.0,2527.0,2132.0,3052455.0,
2473.0,4051.0,2504.0,2128.0,3052459.0,
2473.0,4052.0,2485.0,2122.0,3052462.0,
2475.0,4051.0,2467.0,2118.0,3052466.0,
2478.0,4051.0,2447.0,2112.0,3052470.0,
2476.0,4051.0,2430.0,2107.0,3052474.0,
2472.0,4051.0,2412.0,2103.0,3052478.0,
2472.0,4052.0,2395.0,2101.0,3052482.0,
2474.0,4052.0,2378.0,2092.0,3052485.0,
2477.0,4052.0,2364.0,2088.0,3052489.0,
2477.0,4050.0,2348.0,2082.0,3052493.0,
2474.0,4052.0,2335.0,2079.0,3052497.0,
2471.0,4051.0,2320.0,2071.0,3052500.0,
2474.0,4052.0,2309.0,2072.0,3052504.0,
2477.0,4052.0,2297.0,2067.0,3052508.0,
2478.0,4051.0,2281.0,2063.0,3052512.0,
2475.0,4050.0,2266.0,2058.0,3052516.0,
2472.0,4051.0,2250.0,2056.0,3052520.0,
2472.0,4052.0,2231.0,2056.0,3052524.0,
2477.0,4050.0,2214.0,2051.0,3052528.0,
2477.0,4053.0,2194.0,2049.0,3052531.0,
2475.0,4051.0,2171.0,2047.0,3052535.0,
2473.0,4050.0,2154.0,2042.0,3052539.0,
2472.0,4052.0,2135.0,2040.0,3052543.0,
2475.0,4052.0,2119.0,2039.0,3052547.0,
2476.0,4050.0,2101.0,2034.0,3052551.0,
2475.0,4052.0,2088.0,2038.0,3052554.0,
2471.0,4051.0,2070.0,2036.0,3052558.0,
2472.0,4053.0,2054.0,2032.0,3052562.0,
2473.0,4051.0,2044.0,2032.0,3052566.0,
2476.0,4052.0,2032.0,2033.0,3052570.0,
2475.0,4051.0,2019.0,2031.0,3052573.0,
2473.0,4051.0,2010.0,2032.0,3052577.0,
2471.0,4052.0,1998.0,2032.0,3052581.0,
2473.0,4052.0,1987.0,2028.0,3052585.0,
2476.0,4051.0,1981.0,2027.0,3052589.0,
2476.0,4051.0,1973.0,2030.0,3052593.0,
2473.0,4051.0,1965.0,2027.0,3052597.0,
2470.0,4050.0,1959.0,2029.0,3052600.0,
2473.0,4052.0,1956.0,2029.0,3052604.0,
2475.0,4052.0,1958.0,2030.0,3052608.0,
2475.0,4051.0,1956.0,2028.0,3052612.0,
2473.0,4051.0,1961.0,2028.0,3052616.0,
2469.0,4050.0,1965.0,2029.0,3052620.0,
2472.0,4051.0,1974.0,2026.0,3052623.0,
2475.0,4053.0,1978.0,2028.0,3052627.0,
2475.0,4050.0,1983.0,2026.0,3052631.0,
2474.0,4051.0,1990.0,2027.0,3052635.0,
2471.0,4051.0,1994.0,2025.0,3052639.0,
2472.0,4051.0,2001.0,2026.0,3052642.0,
2473.0,4053.0,2001.0,2026.0,3052646.0,
2476.0,4051.0,2006.0,2027.0,3052650.0,
2474.0,4050.0,2012.0,2025.0,3052654.0,
2471.0,4051.0,2019.0,2025.0,3052658.0,
2471.0,4051.0,2028.0,2024.0,3052662.0,
2473.0,4051.0,2032.0,2024.0,3052666.0,
2475.0,4051.0,2037.0,2020.0,3052669.0,
2474.0,4050.0,2045.0,2018.0,3052673.0,
2472.0,4051.0,2052.0,2020.0,3052677.0,
2470.0,4053.0,2056.0,2019.0,3052681.0,
2472.0,4050.0,2057.0,2017.0,3052685.0,
2476.0,4051.0,2062.0,2017.0,3052689.0,
2476.0,4050.0,2061.0,2014.0,3052692.0,
2472.0,4049.0,2063.0,2011.0,3052696.0,
2470.0,4050.0,2063.0,2009.0,3052700.0,
2472.0,4052.0,2063.0,2009.0,3052704.0,
2474.0,4052.0,2055.0,2006.0,3052708.0,
2475.0,4052.0,2055.0,2006.0,3052711.0,
2474.0,4052.0,2053.0,2004.0,3052715.0,
2472.0,4052.0,2048.0,2003.0,3052719.0,
2471.0,4053.0,2043.0,1998.0,3052723.0,
2476.0,4051.0,2036.0,1998.0,3052727.0,
2476.0,4052.0,2032.0,1994.0,3052731.0,
2474.0,4051.0,2026.0,1996.0,3052735.0,
2470.0,4051.0,2020.0,1993.0,3052739.0,
2472.0,4050.0,2009.0,1993.0,3052743.0,
2474.0,4051.0,2007.0,1990.0,3052746.0,
2478.0,4051.0,1997.0,1992.0,3052750.0,
2474.0,4052.0,1991.0,1991.0,3052754.0,
2471.0,4052.0,1985.0,1991.0,3052758.0,
2471.0,4050.0,1977.0,1990.0,3052762.0,
2475.0,4050.0,1977.0,1989.0,3052766.0,
2475.0,4051.0,1968.0,1985.0,3052770.0,
2475.0,4051.0,1965.0,1987.0,3052774.0,
2471.0,4048.0,1958.0,1987.0,3052777.0,
2471.0,4051.0,1952.0,1987.0,3052781.0,
2472.0,4051.0,1948.0,1983.0,3052785.0,
2476.0,4054.0,1945.0,1984.0,3052789.0,
2476.0,4051.0,1941.0,1984.0,3052793.0,
2473.0,4052.0,1933.0,1982.0,3052797.0,
2471.0,4052.0,1930.0,1981.0,3052801.0,
2473.0,4052.0,1923.0,1984.0,3052805.0,
2476.0,4052.0,1918.0,1982.0,3052808.0,
2476.0,4051.0,1914.0,1982.0,3052812.0,
2474.0,4052.0,1908.0,1982.0,3052816.0,
2470.0,4051.0,1902.0,1979.0,3052820.0,
2472.0,4051.0,1899.0,1979.0,3052824.0,
2477.0,4051.0,1896.0,1977.0,3052828.0,
2475.0,4051.0,1891.0,1979.0,3052832.0,
2473.0,4051.0,1890.0,1981.0,3052835.0,
2471.0,4051.0,1886.0,1982.0,3052839.0,
2471.0,4052.0,1884.0,1980.0,3052843.0,
2474.0,4051.0,1883.0,1980.0,3052847.0,
2476.0,4051.0,1877.0,1979.0,3052851.0,
2474.0,4051.0,1876.0,1977.0,3052855.0,
2472.0,4051.0,1877.0,1981.0,3052859.0,
2471.0,4050.0,1875.0,1978.0,3052863.0,
2474.0,4051.0,1876.0,1979.0,3052866.0,
2476.0,4053.0,1875.0,1979.0,3052870.0,
2475.0,4052.0,1879.0,1979.0,3052874.0,
2472.0,4051.0,1880.0,1978.0,3052878.0,
2471.0,4052.0,1885.0,1979.0,3052882.0,
2474.0,4053.0,1885.0,1976.0,3052885.0,
2476.0,4052.0,1885.0,1981.0,3052889.0,
2475.0,4052.0,1884.0,1976.0,3052893.0,
2472.0,4050.0,1883.0,1977.0,3052897.0,
2472.0,4051.0,1884.0,1977.0,3052901.0,
2473.0,4048.0,1880.0,1979.0,3052905.0,
2476.0,4051.0,1880.0,1980.0,3052909.0,
2475.0,4050.0,1881.0,1979.0,3052913.0,
2471.0,4052.0,1882.0,1978.0,3052917.0,
2470.0,4051.0,1880.0,1981.0,3052921.0,
2474.0,4050.0,1884.0,1978.0,3052925.0,
2476.0,4051.0,1882.0,1981.0,3052929.0,
2476.0,4050.0,1882.0,1980.0,3052932.0,
2473.0,4050.0,1882.0,1981.0,3052936.0,
2471.0,4050.0,1885.0,1982.0,3052940.0,
2473.0,4051.0,1884.0,1981.0,3052944.0,
2476.0,4050.0,1887.0,1982.0,3052948.0,
2477.0,4051.0,1887.0,1981.0,3052951.0,
2474.0,4050.0,1888.0,1982.0,3052955.0,
2472.0,4050.0,1889.0,1979.0,3052959.0,
2472.0,4050.0,1888.0,1984.0,3052963.0,
2477.0,4051.0,1889.0,1982.0,3052967.0,
2476.0,4050.0,1891.0,1982.0,3052970.0,
2474.0,4051.0,1891.0,1982.0,3052975.0,
2472.0,4050.0,1893.0,1984.0,3052979.0,
2472.0,4051.0,1890.0,1986.0,3052983.0,
2476.0,4051.0,1888.0,1988.0,3052987.0,
2476.0,4052.0,1889.0,1991.0,3052990.0,
2474.0,4050.0,1885.0,1993.0,3052994.0,
2472.0,4051.0,1884.0,1999.0,3052998.0,
2471.0,4051.0,1881.0,2001.0,3053002.0,
2474.0,4050.0,1875.0,2010.0,3053006.0,
2477.0,4051.0,1871.0,2014.0,3053009.0,
2476.0,4052.0,1870.0,2022.0,3053013.0,
2472.0,4050.0,1871.0,2030.0,3053017.0,
2472.0,4051.0,1866.0,2036.0,3053021.0,
2475.0,4052.0,1865.0,2043.0,3053025.0,
2477.0,4051.0,1864.0,2052.0,3053029.0,
2475.0,4050.0,1868.0,2060.0,3053033.0,
2480.0,4052.0,1866.0,2067.0,3053036.0,
2471.0,4051.0,1872.0,2077.0,3053040.0,
2473.0,4050.0,1880.0,2083.0,3053044.0,
2477.0,4052.0,1881.0,2093.0,3053048.0,
2477.0,4051.0,1899.0,2098.0,3053052.0,
2472.0,4052.0,1910.0,2108.0,3053056.0,
2471.0,4051.0,1923.0,2113.0,3053059.0,
2472.0,4052.0,1938.0,2120.0,3053063.0,
2475.0,4052.0,1959.0,2127.0,3053067.0,
2476.0,4052.0,1984.0,2135.0,3053071.0,
2474.0,4051.0,2005.0,2141.0,3053075.0,
2472.0,4052.0,2034.0,2145.0,3053079.0,
2471.0,4050.0,2067.0,2146.0,3053083.0,
2476.0,4052.0,2100.0,2155.0,3053087.0,
2477.0,4051.0,2137.0,2158.0,3053091.0,
2473.0,4053.0,2172.0,2164.0,3053094.0,
2472.0,4051.0,2212.0,2169.0,3053098.0,
2471.0,4050.0,2254.0,2169.0,3053102.0,
2475.0,4052.0,2297.0,2171.0,3053106.0,
2476.0,4050.0,2338.0,2171.0,3053110.0,
2474.0,4052.0,2382.0,2173.0,3053114.0,
2471.0,4051.0,2424.0,2175.0,3053117.0,
2472.0,4050.0,2467.0,2173.0,3053121.0,
2474.0,4051.0,2508.0,2174.0,3053125.0,
2477.0,4051.0,2549.0,2174.0,3053129.0,
2475.0,4051.0,2592.0,2172.0,3053133.0,
2473.0,4052.0,2627.0,2173.0,3053136.0,
2471.0,4051.0,2661.0,2168.0,3053140.0,
2474.0,4052.0,2692.0,2171.0,3053144.0,
2476.0,4050.0,2720.0,2168.0,3053148.0,
2475.0,4051.0,2743.0,2167.0,3053152.0,
2473.0,4051.0,2766.0,2162.0,3053156.0,
2471.0,4052.0,2782.0,2162.0,3053160.0,
2473.0,4052.0,2792.0,2160.0,3053163.0,
2476.0,4051.0,2799.0,2157.0,3053167.0,
2477.0,4052.0,2804.0,2157.0,3053171.0,
2474.0,4052.0,2806.0,2152.0,3053175.0,
2471.0,4048.0,2800.0,2149.0,3053180.0,
2472.0,4049.0,2793.0,2147.0,3053184.0,
2477.0,4052.0,2781.0,2143.0,3053188.0,
2476.0,4051.0,2770.0,2140.0,3053192.0,
2474.0,4052.0,2754.0,2139.0,3053196.0,
2471.0,4050.0,2741.0,2135.0,3053199.0,
2473.0,4052.0,2724.0,2133.0,3053203.0,
2476.0,4051.0,2708.0,2129.0,3053207.0,
2477.0,4052.0,2687.0,2127.0,3053211.0,
2474.0,4052.0,2671.0,2123.0,3053215.0,
2471.0,4051.0,2653.0,2119.0,3053219.0,
2472.0,4050.0,2634.0,2114.0,3053222.0,
2475.0,4052.0,2616.0,2113.0,3053226.0,
2475.0,4051.0,2599.0,2107.0,3053230.0,
2475.0,4052.0,2581.0,2105.0,3053234.0,
2472.0,4049.0,2562.0,2100.0,3053238.0,
2472.0,4052.0,2539.0,2097.0,3053241.0,
2475.0,4051.0,2524.0,2092.0,3053245.0,
2477.0,4050.0,2499.0,2086.0,3053249.0,
2476.0,4052.0,2478.0,2083.0,3053253.0,
2473.0,4051.0,2459.0,2077.0,3053257.0,
2471.0,4053.0,2435.0,2075.0,3053261.0,
2473.0,4051.0,2413.0,2070.0,3053264.0,
2475.0,4051.0,2395.0,2066.0,3053268.0,
2476.0,4052.0,2375.0,2063.0,3053272.0,
2473.0,4051.0,2354.0,2056.0,3053276.0,
2472.0,4053.0,2334.0,2055.0,3053280.0,
2472.0,4052.0,2312.0,2050.0,3053284.0,
2477.0,4052.0,2289.0,2049.0,3053288.0,
2476.0,4051.0,2269.0,2046.0,3053291.0,
2473.0,4050.0,2246.0,2046.0,3053295.0,
2471.0,4051.0,2222.0,2044.0,3053299.0,
2472.0,4052.0,2202.0,2042.0,3053303.0,
2476.0,4051.0,2180.0,2039.0,3053307.0,
2477.0,4051.0,2159.0,2038.0,3053310.0,
2474.0,4053.0,2135.0,2038.0,3053314.0,
2471.0,4052.0,2111.0,2033.0,3053319.0,
2472.0,4050.0,2089.0,2036.0,3053322.0,
2476.0,4054.0,2067.0,2036.0,3053326.0,
2476.0,4052.0,2048.0,2034.0,3053330.0,
2473.0,4051.0,2027.0,2034.0,3053334.0,
2471.0,4051.0,2006.0,2032.0,3053338.0,
2471.0,4051.0,1991.0,2032.0,3053342.0,
2474.0,4051.0,1980.0,2031.0,3053345.0,
2475.0,4052.0,1967.0,2032.0,3053349.0,
2474.0,4050.0,1958.0,2031.0,3053353.0,
2471.0,4051.0,1952.0,2035.0,3053357.0,
2470.0,4052.0,1948.0,2033.0,3053361.0,
2473.0,4052.0,1947.0,2032.0,3053365.0,
2476.0,4051.0,1945.0,2032.0,3053368.0,
2475.0,4051.0,1943.0,2031.0,3053372.0,
2471.0,4052.0,1942.0,2032.0,3053376.0,
2470.0,4050.0,1944.0,2033.0,3053380.0,
2473.0,4051.0,1944.0,2028.0,3053384.0,
2477.0,4051.0,1944.0,2030.0,3053388.0,
2475.0,4050.0,1948.0,2031.0,3053391.0,
2473.0,4050.0,1951.0,2030.0,3053395.0,
2470.0,4051.0,1953.0,2032.0,3053399.0,
2472.0,4050.0,1955.0,2030.0,3053403.0,
2475.0,4051.0,1960.0,2031.0,3053407.0,
2477.0,4050.0,1965.0,2028.0,3053410.0,
2473.0,4052.0,1969.0,2030.0,3053414.0,
2470.0,4052.0,1976.0,2028.0,3053418.0,
2472.0,4050.0,1983.0,2026.0,3053422.0,
2475.0,4052.0,1993.0,2027.0,3053426.0,
2476.0,4051.0,1999.0,2028.0,3053430.0,
2474.0,4050.0,2009.0,2024.0,3053433.0,
2471.0,4051.0,2016.0,2023.0,3053437.0,
2471.0,4050.0,2029.0,2020.0,3053441.0,
2474.0,4051.0,2039.0,2019.0,3053445.0,
2476.0,4051.0,2044.0,2015.0,3053449.0,
2475.0,4051.0,2044.0,2015.0,3053453.0,
2471.0,4050.0,2054.0,2014.0,3053457.0,
2471.0,4051.0,2056.0,2015.0,3053460.0,
2474.0,4051.0,2066.0,2012.0,3053464.0,
2475.0,4050.0,2067.0,2008.0,3053468.0,
2476.0,4052.0,2068.0,2006.0,3053472.0,
2473.0,4053.0,2070.0,2009.0,3053476.0,
2471.0,4049.0,2071.0,2001.0,3053480.0,
2473.0,4052.0,2068.0,2003.0,3053483.0,
2476.0,4052.0,2068.0,2001.0,3053487.0,
2476.0,4050.0,2067.0,1998.0,3053491.0,
2473.0,4051.0,2063.0,1998.0,3053495.0,
2472.0,4050.0,2061.0,1996.0,3053499.0,
2473.0,4053.0,2054.0,1997.0,3053503.0,
2475.0,4051.0,2048.0,1996.0,3053507.0,
2476.0,4053.0,2042.0,1996.0,3053510.0,
2473.0,4052.0,2035.0,1994.0,3053514.0,
2471.0,4051.0,2030.0,1991.0,3053518.0,
2471.0,4050.0,2020.0,1989.0,3053522.0,
2475.0,4051.0,2012.0,1988.0,3053526.0,
2476.0,4051.0,2005.0,1986.0,3053530.0,
2474.0,4050.0,2000.0,1987.0,3053533.0,
2471.0,4050.0,1994.0,1984.0,3053537.0,
2471.0,4050.0,1990.0,1983.0,3053541.0,
2474.0,4051.0,1981.0,1984.0,3053545.0,
2477.0,4051.0,1976.0,1984.0,3053549.0,
2475.0,4050.0,1970.0,1981.0,3053553.0,
2471.0,4051.0,1967.0,1979.0,3053556.0,
2470.0,4052.0,1957.0,1980.0,3053560.0,
2473.0,4051.0,1951.0,1980.0,3053564.0,
2475.0,4051.0,1946.0,1980.0,3053568.0,
2478.0,4051.0,1932.0,1981.0,3053572.0,
2473.0,4051.0,1923.0,1980.0,3053575.0,
2470.0,4050.0,1912.0,1980.0,3053579.0,
2473.0,4051.0,1907.0,1978.0,3053583.0,
2476.0,4050.0,1901.0,1978.0,3053587.0,
2475.0,4050.0,1892.0,1981.0,3053591.0,
2475.0,4052.0,1885.0,1980.0,3053595.0,
2470.0,4050.0,1879.0,1979.0,3053598.0,
2472.0,4051.0,1875.0,1981.0,3053602.0,
2475.0,4051.0,1871.0,1980.0,3053606.0,
2476.0,4051.0,1863.0,1983.0,3053610.0,
2474.0,4050.0,1862.0,1983.0,3053614.0,
2471.0,4051.0,1861.0,1982.0,3053617.0,
2471.0,4053.0,1857.0,1985.0,3053621.0,
2474.0,4052.0,1857.0,1982.0,3053625.0,
2476.0,4050.0,1858.0,1981.0,3053629.0,
2474.0,4052.0,1858.0,1982.0,3053633.0,
2472.0,4051.0,1856.0,1982.0,3053637.0,
2471.0,4051.0,1857.0,1985.0,3053641.0,
2475.0,4052.0,1857.0,1986.0,3053645.0,
2477.0,4052.0,1854.0,1989.0,3053649.0,
2475.0,4051.0,1851.0,1987.0,3053653.0,
2471.0,4050.0,1854.0,1985.0,3053657.0,
2472.0,4052.0,1853.0,1986.0,3053661.0,
2475.0,4051.0,1851.0,1988.0,3053665.0,
2477.0,4051.0,1851.0,1987.0,3053668.0,
2475.0,4052.0,1845.0,1989.0,3053672.0,
2472.0,4052.0,1844.0,1988.0,3053676.0,
2472.0,4052.0,1845.0,1989.0,3053680.0,
2474.0,4050.0,1845.0,1986.0,3053684.0,
2476.0,4052.0,1845.0,1987.0,3053688.0,
2476.0,4050.0,1845.0,1987.0,3053692.0,
2472.0,4052.0,1848.0,1988.0,3053696.0,
2471.0,4051.0,1850.0,1986.0,3053700.0,
2472.0,4052.0,1853.0,1986.0,3053703.0,
2477.0,4051.0,1852.0,1985.0,3053707.0,
2476.0,4052.0,1852.0,1986.0,3053711.0,
2473.0,4050.0,1854.0,1981.0,3053715.0,
2471.0,4051.0,1854.0,1980.0,3053719.0,
2473.0,4051.0,1856.0,1979.0,3053723.0,
2476.0,4051.0,1859.0,1980.0,3053727.0,
2476.0,4052.0,1861.0,1978.0,3053730.0,
2474.0,4051.0,1862.0,1977.0,3053734.0,
2471.0,4051.0,1863.0,1976.0,3053738.0,
2472.0,4051.0,1865.0,1976.0,3053742.0,
2476.0,4051.0,1863.0,1978.0,3053746.0,
2476.0,4050.0,1865.0,1977.0,3053750.0,
2474.0,4051.0,1869.0,1980.0,3053753.0,
2472.0,4052.0,1868.0,1984.0,3053757.0,
2473.0,4052.0,1868.0,1982.0,3053761.0,
2474.0,4051.0,1871.0,1983.0,3053765.0,
2477.0,4051.0,1871.0,1989.0,3053769.0,
2474.0,4050.0,1868.0,1993.0,3053773.0,
2471.0,4051.0,1872.0,1997.0,3053776.0,
2472.0,4051.0,1873.0,2001.0,3053780.0,
2474.0,4052.0,1872.0,2009.0,3053784.0,
2476.0,4052.0,1871.0,2014.0,3053788.0,
2476.0,4052.0,1873.0,2021.0,3053792.0,
2473.0,4052.0,1872.0,2027.0,3053796.0,
2472.0,4053.0,1873.0,2035.0,3053800.0,
2475.0,4052.0,1876.0,2041.0,3053803.0,
2477.0,4051.0,1878.0,2048.0,3053807.0,
2475.0,4051.0,1882.0,2053.0,3053811.0,
2474.0,4051.0,1884.0,2064.0,3053815.0,
2472.0,4052.0,1886.0,2070.0,3053819.0,
2474.0,4051.0,1889.0,2076.0,3053823.0,
2476.0,4051.0,1896.0,2087.0,3053826.0,
2477.0,4053.0,1907.0,2094.0,3053830.0,
2474.0,4052.0,1917.0,2100.0,3053834.0,
2471.0,4050.0,1932.0,2105.0,3053838.0,
2473.0,4053.0,1950.0,2113.0,3053842.0,
2476.0,4050.0,1968.0,2115.0,3053846.0,
2477.0,4052.0,1990.0,2122.0,3053849.0,
2474.0,4051.0,2014.0,2128.0,3053853.0,
2472.0,4051.0,2042.0,2132.0,3053857.0,
2472.0,4051.0,2070.0,2138.0,3053861.0,
2476.0,4051.0,2103.0,2137.0,3053865.0,
2477.0,4053.0,2137.0,2142.0,3053868.0,
2475.0,4051.0,2175.0,2144.0,3053872.0,
2472.0,4051.0,2216.0,2145.0,3053876.0,
2472.0,4051.0,2255.0,2146.0,3053880.0,
2474.0,4052.0,2298.0,2148.0,3053884.0,
2477.0,4054.0,2343.0,2148.0,3053888.0,
2477.0,4051.0,2384.0,2148.0,3053892.0,
2472.0,4052.0,2430.0,2148.0,3053896.0,
2472.0,4051.0,2473.0,2146.0,3053899.0,
2473.0,4051.0,2518.0,2148.0,3053903.0,
2478.0,4051.0,2559.0,2148.0,3053907.0,
2476.0,4052.0,2600.0,2148.0,3053911.0,
2474.0,4051.0,2640.0,2147.0,3053915.0,
2471.0,4053.0,2674.0,2145.0,3053918.0,
2474.0,4052.0,2708.0,2141.0,3053922.0,
2475.0,4052.0,2734.0,2143.0,3053926.0,
2477.0,4053.0,2762.0,2140.0,3053930.0,
2475.0,4051.0,2780.0,2138.0,3053934.0,
2472.0,4053.0,2803.0,2135.0,3053938.0,
2472.0,4051.0,2820.0,2132.0,3053942.0,
2476.0,4052.0,2826.0,2132.0,3053945.0,
2477.0,4054.0,2836.0,2129.0,3053949.0,
2475.0,4052.0,2839.0,2125.0,3053953.0,
2472.0,4051.0,2841.0,2123.0,3053957.0,
2473.0,4051.0,2840.0,2120.0,3053961.0,
2476.0,4053.0,2835.0,2117.0,3053964.0,
2478.0,4051.0,2828.0,2113.0,3053968.0,
2475.0,4052.0,2819.0,2112.0,3053972.0,
2472.0,4051.0,2802.0,2107.0,3053976.0,
2473.0,4052.0,2785.0,2104.0,3053980.0,
2474.0,4054.0,2766.0,2102.0,3053984.0,
2478.0,4053.0,2749.0,2099.0,3053987.0,
2476.0,4052.0,2728.0,2095.0,3053991.0,
2473.0,4051.0,2705.0,2089.0,3053995.0,
2473.0,4052.0,2683.0,2089.0,3053999.0,
2473.0,4052.0,2659.0,2085.0,3054003.0,
2477.0,4053.0,2637.0,2083.0,3054006.0,
2478.0,4052.0,2614.0,2079.0,3054010.0,
2474.0,4053.0,2590.0,2074.0,3054014.0,
2472.0,4051.0,2561.0,2072.0,3054018.0,
2474.0,4051.0,2537.0,2068.0,3054022.0,
2478.0,4051.0,2504.0,2063.0,3054026.0,
2479.0,4052.0,2475.0,2059.0,3054030.0,
2475.0,4050.0,2448.0,2056.0,3054034.0,
2472.0,4052.0,2422.0,2053.0,3054037.0,
2473.0,4052.0,2394.0,2049.0,3054041.0,
2475.0,4051.0,2365.0,2045.0,3054045.0,
2477.0,4053.0,2337.0,2042.0,3054049.0,
2475.0,4052.0,2311.0,2039.0,3054053.0,
2472.0,4051.0,2279.0,2036.0,3054057.0,
2472.0,4051.0,2253.0,2036.0,3054060.0,
2475.0,4052.0,2229.0,2033.0,3054064.0,
2478.0,4053.0,2205.0,2031.0,3054068.0,
2476.0,4051.0,2177.0,2029.0,3054072.0,
2473.0,4052.0,2154.0,2028.0,3054076.0,
2472.0,4051.0,2127.0,2026.0,3054080.0,
2475.0,4051.0,2109.0,2027.0,3054083.0,
2478.0,4052.0,2085.0,2026.0,3054087.0,
2477.0,4052.0,2069.0,2026.0,3054091.0,
2474.0,4051.0,2052.0,2024.0,3054095.0,
2472.0,4052.0,2033.0,2028.0,3054099.0,
2474.0,4053.0,2018.0,2024.0,3054103.0,
2476.0,4051.0,2004.0,2024.0,3054106.0,
2477.0,4051.0,1991.0,2024.0,3054110.0,
2474.0,4051.0,1978.0,2021.0,3054114.0,
2472.0,4050.0,1964.0,2021.0,3054118.0,
2473.0,4051.0,1948.0,2024.0,3054122.0,
2477.0,4050.0,1939.0,2025.0,3054125.0,
2477.0,4052.0,1928.0,2026.0,3054129.0,
2475.0,4053.0,1919.0,2027.0,3054133.0,
2472.0,4050.0,1912.0,2026.0,3054137.0,
2473.0,4049.0,1912.0,2027.0,3054141.0,
2476.0,4051.0,1908.0,2027.0,3054145.0,
2477.0,4051.0,1908.0,2027.0,3054149.0,
2476.0,4051.0,1910.0,2028.0,3054152.0,
2472.0,4051.0,1912.0,2029.0,3054156.0,
2471.0,4050.0,1916.0,2029.0,3054160.0,
2475.0,4053.0,1921.0,2031.0,3054164.0,
2478.0,4053.0,1931.0,2031.0,3054168.0,
2477.0,4054.0,1938.0,2036.0,3054172.0,
2473.0,4052.0,1949.0,2032.0,3054175.0,
2473.0,4051.0,1958.0,2034.0,3054179.0,
2473.0,4052.0,1968.0,2030.0,3054183.0,
2478.0,4053.0,1980.0,2031.0,3054188.0,
2476.0,4050.0,1992.0,2028.0,3054192.0,
2472.0,4052.0,2005.0,2030.0,3054196.0,
2472.0,4051.0,2012.0,2026.0,3054200.0,
2475.0,4050.0,2021.0,2027.0,3054204.0,
2478.0,4051.0,2032.0,2026.0,3054208.0,
2476.0,4051.0,2041.0,2023.0,3054212.0,
2473.0,4051.0,2046.0,2026.0,3054215.0,
2471.0,4052.0,2050.0,2024.0,3054219.0,
2474.0,4053.0,2059.0,2023.0,3054223.0,
2480.0,4052.0,2061.0,2022.0,3054227.0,
2477.0,4051.0,2068.0,2021.0,3054231.0,
2473.0,4053.0,2067.0,2020.0,3054235.0,
2472.0,4051.0,2069.0,2015.0,3054238.0,
2473.0,4051.0,2071.0,2014.0,3054242.0,
2476.0,4051.0,2066.0,2015.0,3054246.0,
2477.0,4051.0,2068.0,2016.0,3054250.0,
2475.0,4052.0,2061.0,2014.0,3054254.0,
2472.0,4051.0,2060.0,2013.0,3054258.0,
2475.0,4053.0,2056.0,2013.0,3054261.0,
2476.0,4053.0,2050.0,2013.0,3054265.0,
2478.0,4051.0,2045.0,2011.0,3054269.0,
2474.0,4051.0,2039.0,2008.0,3054273.0,
2472.0,4051.0,2032.0,2007.0,3054277.0,
2472.0,4052.0,2027.0,2006.0,3054281.0,
2477.0,4052.0,2022.0,2005.0,3054285.0,
2478.0,4051.0,2016.0,2005.0,3054289.0,
2475.0,4052.0,2010.0,2000.0,3054292.0,
2472.0,4052.0,2002.0,2000.0,3054296.0,
2472.0,4052.0,1995.0,2000.0,3054300.0,
2475.0,4051.0,1991.0,1997.0,3054304.0,
2478.0,4051.0,1983.0,1996.0,3054308.0,
2475.0,4051.0,1978.0,1995.0,3054312.0,
2473.0,4051.0,1965.0,1993.0,3054316.0,
2472.0,4051.0,1955.0,1994.0,3054319.0,
2475.0,4052.0,1945.0,1993.0,3054323.0,
2477.0,4052.0,1938.0,1992.0,3054327.0,
2475.0,4050.0,1930.0,1991.0,3054331.0,
2472.0,4050.0,1921.0,1990.0,3054335.0,
2472.0,4052.0,1911.0,1989.0,3054339.0,
2475.0,4049.0,1905.0,1986.0,3054342.0,
2477.0,4053.0,1897.0,1987.0,3054346.0,
2476.0,4050.0,1888.0,1988.0,3054350.0,
2474.0,4052.0,1880.0,1987.0,3054354.0,
2471.0,4052.0,1874.0,1986.0,3054358.0,
2473.0,4050.0,1868.0,1986.0,3054362.0,
2476.0,4050.0,1861.0,1985.0,3054365.0,
2477.0,4050.0,1858.0,1983.0,3054369.0,
2474.0,4051.0,1849.0,1983.0,3054373.0,
2471.0,4051.0,1843.0,1983.0,3054377.0,
2472.0,4050.0,1841.0,1984.0,3054381.0,
2476.0,4051.0,1834.0,1981.0,3054385.0,
2478.0,4051.0,1832.0,1982.0,3054389.0,
2474.0,4051.0,1831.0,1984.0,3054392.0,
2471.0,4052.0,1830.0,1981.0,3054396.0,
2472.0,4050.0,1830.0,1982.0,3054400.0,
2477.0,4050.0,1829.0,1981.0,3054404.0,
2477.0,4050.0,1823.0,1981.0,3054408.0,
2475.0,4053.0,1822.0,1980.0,3054412.0,
2471.0,4049.0,1821.0,1979.0,3054416.0,
2471.0,4050.0,1819.0,1982.0,3054419.0,
2474.0,4051.0,1817.0,1980.0,3054423.0,
2475.0,4051.0,1814.0,1979.0,3054427.0,
2475.0,4051.0,1814.0,1980.0,3054431.0,
2472.0,4048.0,1812.0,1981.0,3054435.0,
2471.0,4050.0,1814.0,1981.0,3054439.0,
2474.0,4050.0,1814.0,1980.0,3054443.0,
2476.0,4052.0,1817.0,1981.0,3054447.0,
2475.0,4051.0,1816.0,1983.0,3054450.0,
2472.0,4052.0,1819.0,1984.0,3054454.0,
2471.0,4050.0,1821.0,1980.0,3054458.0,
2473.0,4050.0,1823.0,1980.0,3054462.0,
2476.0,4051.0,1824.0,1981.0,3054466.0,
2476.0,4052.0,1824.0,1983.0,3054470.0,
2473.0,4051.0,1827.0,1981.0,3054474.0,
2471.0,4051.0,1826.0,1981.0,3054477.0,
2473.0,4051.0,1831.0,1985.0,3054481.0,
2476.0,4051.0,1835.0,1988.0,3054485.0,
2476.0,4050.0,1839.0,1987.0,3054489.0,
2473.0,4052.0,1842.0,1985.0,3054493.0,
2472.0,4050.0,1841.0,1988.0,3054497.0,
2472.0,4051.0,1847.0,1991.0,3054500.0,
2475.0,4050.0,1849.0,1996.0,3054504.0,
2477.0,4052.0,1852.0,2001.0,3054508.0,
2474.0,4051.0,1860.0,2003.0,3054512.0,
2471.0,4050.0,1859.0,2007.0,3054516.0,
2472.0,4051.0,1860.0,2011.0,3054520.0,
2474.0,4051.0,1860.0,2020.0,3054524.0,
2477.0,4051.0,1860.0,2024.0,3054527.0,
2475.0,4051.0,1859.0,2033.0,3054532.0,
2471.0,4052.0,1857.0,2038.0,3054535.0,
2471.0,4051.0,1858.0,2044.0,3054539.0,
2474.0,4051.0,1860.0,2053.0,3054543.0,
2476.0,4050.0,1860.0,2058.0,3054547.0,
2475.0,4052.0,1862.0,2066.0,3054551.0,
2472.0,4050.0,1865.0,2075.0,3054555.0,
2472.0,4053.0,1870.0,2080.0,3054559.0,
2474.0,4050.0,1878.0,2086.0,3054562.0,
2477.0,4050.0,1886.0,2092.0,3054566.0,
2477.0,4050.0,1896.0,2099.0,3054570.0,
2473.0,4051.0,1914.0,2106.0,3054574.0,
2470.0,4051.0,1932.0,2111.0,3054578.0,
2474.0,4052.0,1953.0,2118.0,3054582.0,
2476.0,4052.0,1981.0,2123.0,3054586.0,
2477.0,4052.0,2008.0,2130.0,3054590.0,
2473.0,4050.0,2040.0,2133.0,3054594.0,
2471.0,4053.0,2079.0,2137.0,3054597.0,
2473.0,4052.0,2117.0,2139.0,3054601.0,
2476.0,4050.0,2161.0,2143.0,3054605.0,
2477.0,4052.0,2202.0,2146.0,3054609.0,
2473.0,4050.0,2246.0,2145.0,3054613.0,
2472.0,4053.0,2286.0,2147.0,3054616.0,
2474.0,4052.0,2334.0,2149.0,3054620.0,
2476.0,4052.0,2380.0,2148.0,3054624.0,
2476.0,4051.0,2434.0,2145.0,3054628.0,
2475.0,4050.0,2481.0,2145.0,3054632.0,
2473.0,4049.0,2524.0,2142.0,3054636.0,
2472.0,4051.0,2570.0,2143.0,3054640.0,
2475.0,4051.0,2612.0,2138.0,3054644.0,
2477.0,4051.0,2652.0,2138.0,3054647.0,
2474.0,4052.0,2690.0,2133.0,3054651.0,
2473.0,4053.0,2726.0,2134.0,3054655.0,
2471.0,4050.0,2756.0,2127.0,3054659.0,
2475.0,4052.0,2786.0,2128.0,3054663.0,
2477.0,4051.0,2812.0,2124.0,3054667.0,
2476.0,4052.0,2831.0,2124.0,3054670.0,
2472.0,4050.0,2851.0,2121.0,3054674.0,
2470.0,4051.0,2864.0,2116.0,3054678.0,
2475.0,4052.0,2873.0,2116.0,3054682.0,
2476.0,4051.0,2877.0,2112.0,3054686.0,
2476.0,4052.0,2887.0,2110.0,3054690.0,
2473.0,4051.0,2886.0,2107.0,3054693.0,
2471.0,4052.0,2880.0,2103.0,3054697.0,
2474.0,4052.0,2875.0,2104.0,3054701.0,
2477.0,4052.0,2863.0,2100.0,3054705.0,
2476.0,4051.0,2853.0,2097.0,3054709.0,
2474.0,4052.0,2835.0,2093.0,3054713.0,
2470.0,4051.0,2817.0,2091.0,3054717.0,
2472.0,4052.0,2795.0,2089.0,3054720.0,
2476.0,4052.0,2773.0,2086.0,3054724.0,
2477.0,4051.0,2753.0,2083.0,3054728.0,
2475.0,4051.0,2724.0,2081.0,3054732.0,
2471.0,4052.0,2702.0,2077.0,3054736.0,
2472.0,4051.0,2672.0,2071.0,3054740.0,
2475.0,4052.0,2647.0,2070.0,3054744.0,
2478.0,4050.0,2617.0,2065.0,3054748.0,
2475.0,4052.0,2589.0,2062.0,3054751.0,
2472.0,4053.0,2562.0,2058.0,3054755.0,
2472.0,4050.0,2530.0,2054.0,3054759.0,
2475.0,4051.0,2502.0,2052.0,3054763.0,
2481.0,4051.0,2471.0,2045.0,3054767.0,
2476.0,4053.0,2441.0,2045.0,3054771.0,
2472.0,4051.0,2409.0,2040.0,3054775.0,
2471.0,4051.0,2374.0,2035.0,3054779.0,
2475.0,4051.0,2346.0,2035.0,3054783.0,
2479.0,4050.0,2312.0,2030.0,3054787.0,
2474.0,4051.0,2282.0,2030.0,3054791.0,
2472.0,4052.0,2251.0,2027.0,3054796.0,
2472.0,4050.0,2224.0,2022.0,3054799.0,
2475.0,4052.0,2194.0,2023.0,3054803.0,
2477.0,4053.0,2165.0,2018.0,3054807.0,
2475.0,4051.0,2140.0,2019.0,3054811.0,
2471.0,4052.0,2113.0,2021.0,3054815.0,
2468.0,4051.0,2089.0,2018.0,3054819.0,
2475.0,4052.0,2070.0,2019.0,3054823.0,
2477.0,4052.0,2046.0,2019.0,3054827.0,
2475.0,4052.0,2026.0,2020.0,3054831.0,
2472.0,4051.0,2005.0,2020.0,3054834.0,
2472.0,4052.0,1984.0,2022.0,3054838.0,
2475.0,4050.0,1968.0,2020.0,3054842.0,
2476.0,4050.0,1953.0,2021.0,3054846.0,
2476.0,4051.0,1939.0,2020.0,3054850.0,
2472.0,4051.0,1927.0,2024.0,3054854.0,
2471.0,4050.0,1916.0,2021.0,3054858.0,
2474.0,4053.0,1907.0,2022.0,3054861.0,
2476.0,4052.0,1903.0,2024.0,3054865.0,
2476.0,4051.0,1896.0,2021.0,3054869.0,
2473.0,4050.0,1892.0,2021.0,3054873.0,
2472.0,4051.0,1890.0,2021.0,3054877.0,
2474.0,4049.0,1888.0,2025.0,3054881.0,
2477.0,4052.0,1891.0,2023.0,3054885.0,
2477.0,4050.0,1894.0,2024.0,3054889.0,
2474.0,4050.0,1899.0,2024.0,3054893.0,
2472.0,4051.0,1904.0,2023.0,3054897.0,
2474.0,4051.0,1914.0,2026.0,3054900.0,
2476.0,4051.0,1921.0,2026.0,3054904.0,
2477.0,4051.0,1928.0,2027.0,3054908.0,
2474.0,4051.0,1935.0,2030.0,3054912.0,
2471.0,4050.0,1946.0,2025.0,3054916.0,
2473.0,4051.0,1951.0,2028.0,3054920.0,
2475.0,4052.0,1959.0,2026.0,3054923.0,
2475.0,4050.0,1962.0,2025.0,3054927.0,
2475.0,4050.0,1975.0,2025.0,3054931.0,
2472.0,4052.0,1981.0,2025.0,3054935.0,
2472.0,4051.0,1992.0,2026.0,3054939.0,
2474.0,4052.0,2000.0,2023.0,3054942.0,
2477.0,4052.0,2011.0,2026.0,3054947.0,
2475.0,4052.0,2018.0,2025.0,3054951.0,
2471.0,4052.0,2027.0,2023.0,3054955.0,
2471.0,4052.0,2031.0,2021.0,3054959.0,
2475.0,4052.0,2038.0,2020.0,3054962.0,
2476.0,4050.0,2044.0,2019.0,3054966.0,
2476.0,4050.0,2049.0,2016.0,3054970.0,
2472.0,4050.0,2055.0,2015.0,3054974.0,
2472.0,4052.0,2057.0,2015.0,3054978.0,
2472.0,4052.0,2057.0,2011.0,3054982.0,
2476.0,4053.0,2058.0,2011.0,3054985.0,
2476.0,4053.0,2053.0,2013.0,3054989.0,
2472.0,4051.0,2053.0,2008.0,3054993.0,
2472.0,4052.0,2051.0,2010.0,3054997.0,
2473.0,4051.0,2047.0,2009.0,3055001.0,
2478.0,4051.0,2040.0,2007.0,3055004.0,
2477.0,4051.0,2038.0,2007.0,3055008.0,
2474.0,4050.0,2037.0,2005.0,3055012.0,
2472.0,4051.0,2031.0,2003.0,3055016.0,
2472.0,4051.0,2025.0,2003.0,3055020.0,
2475.0,4051.0,2020.0,2002.0,3055024.0,
2477.0,4051.0,2016.0,1998.0,3055027.0,
2474.0,4052.0,2009.0,2001.0,3055031.0,
2472.0,4051.0,2002.0,1999.0,3055035.0,
2472.0,4051.0,1989.0,1998.0,3055039.0,
2475.0,4050.0,1982.0,1998.0,3055043.0,
2477.0,4052.0,1970.0,1995.0,3055047.0,
2475.0,4051.0,1961.0,1997.0,3055050.0,
2472.0,4052.0,1956.0,1998.0,3055054.0,
2471.0,4052.0,1945.0,1997.0,3055058.0,
2474.0,4053.0,1938.0,1997.0,3055062.0,
2477.0,4052.0,1930.0,1996.0,3055066.0,
2476.0,4052.0,1921.0,1996.0,3055070.0,
2471.0,4052.0,1910.0,1994.0,3055074.0,
2472.0,4053.0,1899.0,1994.0,3055077.0,
2474.0,4052.0,1890.0,1993.0,3055081.0,
2477.0,4051.0,1880.0,1990.0,3055085.0,
2476.0,4051.0,1873.0,1987.0,3055089.0,
2473.0,4052.0,1863.0,1991.0,3055093.0,
2471.0,4052.0,1857.0,1990.0,3055097.0,
2474.0,4052.0,1851.0,1988.0,3055101.0,
2477.0,4051.0,1846.0,1987.0,3055105.0,
2476.0,4051.0,1843.0,1989.0,3055109.0,
2474.0,4053.0,1843.0,1988.0,3055113.0,
2471.0,4052.0,1839.0,1985.0,3055117.0,
2473.0,4052.0,1839.0,1987.0,3055120.0,
2477.0,4051.0,1838.0,1984.0,3055124.0,
2477.0,4051.0,1838.0,1984.0,3055128.0,
2473.0,4051.0,1838.0,1985.0,3055132.0,
2471.0,4051.0,1839.0,1984.0,3055136.0,
2474.0,4051.0,1838.0,1984.0,3055140.0,
2475.0,4051.0,1838.0,1987.0,3055144.0,
2477.0,4051.0,1836.0,1982.0,3055148.0,
2474.0,4051.0,1834.0,1981.0,3055151.0,
2469.0,4051.0,1830.0,1980.0,3055155.0,
2472.0,4051.0,1833.0,1977.0,3055159.0,
2475.0,4051.0,1827.0,1979.0,3055163.0,
2477.0,4050.0,1827.0,1981.0,3055167.0,
2475.0,4051.0,1825.0,1980.0,3055171.0,
2472.0,4051.0,1825.0,1980.0,3055174.0,
2472.0,4051.0,1825.0,1978.0,3055178.0,
2474.0,4051.0,1822.0,1982.0,3055182.0,
2476.0,4051.0,1822.0,1979.0,3055186.0,
2475.0,4052.0,1820.0,1983.0,3055191.0,
2472.0,4052.0,1818.0,1985.0,3055195.0,
2472.0,4051.0,1817.0,1984.0,3055198.0,
2475.0,4052.0,1817.0,1985.0,3055202.0,
2483.0,4052.0,1820.0,1983.0,3055206.0,
2474.0,4054.0,1821.0,1986.0,3055211.0,
2471.0,4051.0,1821.0,1984.0,3055215.0,
2472.0,4052.0,1822.0,1987.0,3055219.0,
2476.0,4052.0,1827.0,1989.0,3055222.0,
2476.0,4051.0,1827.0,1984.0,3055226.0,
2475.0,4051.0,1835.0,1986.0,3055230.0,
2472.0,4049.0,1833.0,1986.0,3055234.0,
2471.0,4051.0,1837.0,1987.0,3055238.0,
2475.0,4052.0,1838.0,1991.0,3055241.0,
2476.0,4049.0,1836.0,1992.0,3055245.0,
2476.0,4053.0,1836.0,1997.0,3055249.0,
2474.0,4053.0,1839.0,2000.0,3055253.0,
2471.0,4052.0,1832.0,2004.0,3055257.0,
2473.0,4052.0,1836.0,2009.0,3055260.0,
2476.0,4051.0,1836.0,2015.0,3055264.0,
2476.0,4051.0,1840.0,2019.0,3055268.0,
2474.0,4050.0,1841.0,2027.0,3055272.0,
2471.0,4051.0,1845.0,2036.0,3055276.0,
2473.0,4051.0,1850.0,2042.0,3055279.0,
2475.0,4053.0,1855.0,2051.0,3055283.0,
2477.0,4052.0,1859.0,2059.0,3055287.0,
2474.0,4051.0,1868.0,2069.0,3055291.0,
2471.0,4051.0,1872.0,2077.0,3055295.0,
2472.0,4052.0,1882.0,2086.0,3055299.0,
2474.0,4051.0,1896.0,2093.0,3055302.0,
2477.0,4052.0,1910.0,2100.0,3055306.0,
2476.0,4051.0,1929.0,2107.0,3055310.0,
2472.0,4052.0,1948.0,2113.0,3055314.0,
2472.0,4052.0,1967.0,2123.0,3055318.0,
2474.0,4051.0,1995.0,2127.0,3055322.0,
2477.0,4053.0,2017.0,2131.0,3055325.0,
2476.0,4052.0,2052.0,2136.0,3055329.0,
2472.0,4051.0,2094.0,2143.0,3055333.0,
2472.0,4052.0,2133.0,2146.0,3055337.0,
2473.0,4051.0,2177.0,2149.0,3055341.0,
2477.0,4053.0,2222.0,2154.0,3055345.0,
2476.0,4050.0,2274.0,2154.0,3055348.0,
2473.0,4050.0,2329.0,2156.0,3055352.0,
2471.0,4052.0,2384.0,2156.0,3055356.0,
2473.0,4050.0,2444.0,2157.0,3055360.0,
2476.0,4053.0,2503.0,2162.0,3055364.0,
2478.0,4051.0,2565.0,2164.0,3055368.0,
2474.0,4052.0,2626.0,2162.0,3055372.0,
2471.0,4051.0,2688.0,2160.0,3055375.0,
2473.0,4051.0,2745.0,2157.0,3055379.0,
2475.0,4053.0,2799.0,2160.0,3055383.0,
2478.0,4050.0,2853.0,2158.0,3055387.0,
2475.0,4051.0,2900.0,2155.0,3055390.0,
2473.0,4053.0,2950.0,2157.0,3055394.0,
2471.0,4052.0,2987.0,2154.0,3055398.0,
2476.0,4051.0,3029.0,2151.0,3055402.0,
2476.0,4052.0,3062.0,2151.0,3055406.0,
2472.0,4052.0,3092.0,2148.0,3055410.0,
2473.0,4052.0,3115.0,2147.0,3055414.0,
2472.0,4053.0,3136.0,2147.0,3055417.0,
2475.0,4052.0,3154.0,2145.0,3055421.0,
2477.0,4051.0,3164.0,2143.0,3055425.0,
2477.0,4053.0,3170.0,2141.0,3055429.0,
2473.0,4050.0,3172.0,2138.0,3055433.0,
2472.0,4052.0,3174.0,2136.0,3055437.0,
2474.0,4051.0,3169.0,2134.0,3055440.0,
2476.0,4052.0,3164.0,2133.0,3055444.0,
2479.0,4051.0,3145.0,2132.0,3055448.0,
2473.0,4053.0,3128.0,2125.0,3055452.0,
2471.0,4050.0,3109.0,2122.0,3055456.0,
2469.0,4052.0,3087.0,2120.0,3055460.0,
2476.0,4052.0,3065.0,2116.0,3055463.0,
2478.0,4052.0,3043.0,2112.0,3055467.0,
2475.0,4052.0,3013.0,2110.0,3055471.0,
2472.0,4051.0,2988.0,2107.0,3055475.0,
2472.0,4055.0,2960.0,2102.0,3055479.0,
2475.0,4051.0,2934.0,2093.0,3055483.0,
2478.0,4052.0,2908.0,2094.0,3055487.0,
2475.0,4051.0,2880.0,2093.0,3055490.0,
2472.0,4051.0,2852.0,2088.0,3055494.0,
2473.0,4051.0,2822.0,2085.0,3055498.0,
2475.0,4051.0,2796.0,2078.0,3055502.0,
2476.0,4052.0,2765.0,2079.0,3055506.0,
2475.0,4050.0,2736.0,2074.0,3055510.0,
2472.0,4052.0,2708.0,2069.0,3055514.0,
2472.0,4051.0,2677.0,2067.0,3055517.0,
2475.0,4053.0,2648.0,2063.0,3055522.0,
2476.0,4051.0,2618.0,2058.0,3055526.0,
2476.0,4052.0,2599.0,2057.0,3055529.0,
2473.0,4052.0,2574.0,2052.0,3055533.0,
2472.0,4051.0,2547.0,2050.0,3055537.0,
2475.0,4051.0,2521.0,2047.0,3055541.0,
2476.0,4052.0,2498.0,2043.0,3055545.0,
2476.0,4052.0,2470.0,2043.0,3055549.0,
2473.0,4052.0,2444.0,2040.0,3055552.0,
2472.0,4052.0,2411.0,2039.0,3055556.0,
2473.0,4051.0,2383.0,2037.0,3055560.0,
2476.0,4053.0,2355.0,2038.0,3055564.0,
2475.0,4050.0,2323.0,2033.0,3055568.0,
2473.0,4051.0,2292.0,2033.0,3055571.0,
2471.0,4052.0,2263.0,2034.0,3055575.0,
2473.0,4052.0,2237.0,2034.0,3055579.0,
2476.0,4051.0,2207.0,2033.0,3055583.0,
2477.0,4052.0,2180.0,2033.0,3055587.0,
2474.0,4050.0,2155.0,2033.0,3055591.0,
2471.0,4054.0,2133.0,2033.0,3055595.0,
2473.0,4051.0,2113.0,2032.0,3055598.0,
2475.0,4051.0,2092.0,2029.0,3055602.0,
2478.0,4051.0,2075.0,2031.0,3055606.0,
2474.0,4050.0,2055.0,2029.0,3055610.0,
2472.0,4051.0,2043.0,2033.0,3055614.0,
2472.0,4049.0,2027.0,2029.0,3055618.0,
2474.0,4051.0,2015.0,2027.0,3055622.0,
2477.0,4051.0,2010.0,2028.0,3055626.0,
2476.0,4050.0,2002.0,2027.0,3055630.0,
2472.0,4050.0,1998.0,2030.0,3055633.0,
2471.0,4052.0,1992.0,2031.0,3055637.0,
2474.0,4053.0,1990.0,2030.0,3055641.0,
2477.0,4052.0,1987.0,2030.0,3055645.0,
2476.0,4052.0,1992.0,2033.0,3055649.0,
2472.0,4051.0,1993.0,2030.0,3055653.0,
2472.0,4052.0,1994.0,2031.0,3055657.0,
2474.0,4052.0,2002.0,2032.0,3055660.0,
2476.0,4052.0,2005.0,2026.0,3055664.0,
2476.0,4051.0,2011.0,2027.0,3055668.0,
2473.0,4051.0,2017.0,2029.0,3055672.0,
2472.0,4052.0,2023.0,2028.0,3055676.0,
2473.0,4051.0,2029.0,2026.0,3055680.0,
2477.0,4050.0,2034.0,2026.0,3055684.0,
2477.0,4052.0,2042.0,2028.0,3055687.0,
2473.0,4049.0,2047.0,2026.0,3055691.0,
2471.0,4051.0,2053.0,2025.0,3055695.0,
2474.0,4053.0,2059.0,2026.0,3055699.0,
2476.0,4051.0,2063.0,2024.0,3055703.0,
2477.0,4052.0,2070.0,2027.0,3055706.0,
2474.0,4051.0,2075.0,2022.0,3055710.0,
2471.0,4053.0,2078.0,2019.0,3055714.0,
2472.0,4052.0,2085.0,2021.0,3055718.0,
2475.0,4053.0,2089.0,2019.0,3055722.0,
2477.0,4051.0,2091.0,2017.0,3055725.0,
2475.0,4052.0,2089.0,2014.0,3055729.0,
2472.0,4052.0,2092.0,2013.0,3055733.0,
2471.0,4049.0,2090.0,2011.0,3055737.0,
2476.0,4053.0,2087.0,2012.0,3055742.0,
2476.0,4050.0,2085.0,2009.0,3055746.0,
2475.0,4053.0,2081.0,2009.0,3055749.0,
2472.0,4051.0,2083.0,2004.0,3055753.0,
2471.0,4050.0,2081.0,2003.0,3055757.0,
2475.0,4052.0,2075.0,2004.0,3055761.0,
2477.0,4050.0,2067.0,2001.0,3055765.0,
2477.0,4053.0,2062.0,2004.0,3055768.0,
2473.0,4052.0,2056.0,2004.0,3055772.0,
2471.0,4050.0,2048.0,2002.0,3055776.0,
2473.0,4051.0,2041.0,1999.0,3055780.0,
2477.0,4052.0,2031.0,1999.0,3055784.0,
2476.0,4051.0,2020.0,1997.0,3055788.0,
2473.0,4051.0,2009.0,1997.0,3055791.0,
2472.0,4050.0,1996.0,1995.0,3055795.0,
2473.0,4050.0,1986.0,1996.0,3055799.0,
2476.0,4050.0,1975.0,1996.0,3055803.0,
2477.0,4051.0,1963.0,1994.0,3055807.0,
2473.0,4051.0,1950.0,1993.0,3055811.0,
2472.0,4051.0,1938.0,1993.0,3055814.0,
2471.0,4052.0,1923.0,1992.0,3055818.0,
2475.0,4052.0,1912.0,1995.0,3055822.0,
2477.0,4052.0,1900.0,1991.0,3055826.0,
2474.0,4051.0,1886.0,1993.0,3055830.0,
2469.0,4052.0,1872.0,1989.0,3055834.0,
2472.0,4053.0,1862.0,1990.0,3055838.0,
2476.0,4053.0,1851.0,1989.0,3055842.0,
2477.0,4055.0,1845.0,1988.0,3055845.0,
2475.0,4051.0,1831.0,1987.0,3055849.0,
2471.0,4051.0,1823.0,1989.0,3055853.0,
2472.0,4052.0,1813.0,1985.0,3055857.0,
2474.0,4051.0,1806.0,1985.0,3055861.0,
2478.0,4051.0,1802.0,1986.0,3055865.0,
2476.0,4050.0,1798.0,1985.0,3055869.0,
2472.0,4052.0,1795.0,1986.0,3055872.0,
2472.0,4052.0,1790.0,1985.0,3055876.0,
2475.0,4052.0,1788.0,1983.0,3055880.0,
2475.0,4052.0,1785.0,1985.0,3055884.0,
2476.0,4051.0,1781.0,1984.0,3055888.0,
2473.0,4051.0,1781.0,1984.0,3055891.0,
2470.0,4051.0,1781.0,1987.0,3055895.0,
2474.0,4051.0,1785.0,1986.0,3055899.0,
2476.0,4050.0,1785.0,1983.0,3055903.0,
2478.0,4051.0,1786.0,1986.0,3055907.0,
2473.0,4050.0,1787.0,1985.0,3055911.0,
2471.0,4052.0,1784.0,1987.0,3055914.0,
2472.0,4052.0,1786.0,1985.0,3055918.0,
2476.0,4051.0,1783.0,1984.0,3055922.0,
2476.0,4051.0,1783.0,1987.0,3055926.0,
2474.0,4050.0,1780.0,1985.0,3055930.0,
2472.0,4051.0,1778.0,1986.0,3055934.0,
2472.0,4051.0,1778.0,1986.0,3055937.0,
2475.0,4052.0,1776.0,1986.0,3055941.0,
2477.0,4051.0,1780.0,1985.0,3055945.0,
2475.0,4050.0,1780.0,1988.0,3055949.0,
2471.0,4052.0,1781.0,1986.0,3055953.0,
2472.0,4051.0,1788.0,1989.0,3055957.0,
2475.0,4051.0,1790.0,1990.0,3055961.0,
2478.0,4052.0,1799.0,1987.0,3055964.0,
2476.0,4052.0,1798.0,1990.0,3055968.0,
2472.0,4053.0,1801.0,1990.0,3055972.0,
2471.0,4053.0,1806.0,1992.0,3055976.0,
2474.0,4053.0,1810.0,1990.0,3055980.0,
2477.0,4052.0,1812.0,1993.0,3055984.0,
2476.0,4052.0,1817.0,1995.0,3055987.0,
2472.0,4050.0,1821.0,1993.0,3055991.0,
2473.0,4051.0,1815.0,1993.0,3055995.0,
2473.0,4050.0,1814.0,1997.0,3055999.0,
2477.0,4052.0,1811.0,1999.0,3056003.0,
2476.0,4051.0,1809.0,2002.0,3056007.0,
2474.0,4051.0,1801.0,2005.0,3056010.0,
2471.0,4052.0,1802.0,2004.0,3056014.0,
2472.0,4050.0,1799.0,2010.0,3056018.0,
2475.0,4052.0,1797.0,2013.0,3056022.0,
2477.0,4049.0,1794.0,2020.0,3056026.0,
2474.0,4051.0,1797.0,2024.0,3056030.0,
2471.0,4051.0,1795.0,2031.0,3056034.0,
2472.0,4050.0,1796.0,2037.0,3056038.0,
2476.0,4050.0,1795.0,2043.0,3056041.0,
2477.0,4051.0,1796.0,2051.0,3056045.0,
2475.0,4052.0,1800.0,2060.0,3056049.0,
2471.0,4051.0,1805.0,2065.0,3056053.0,
2472.0,4052.0,1813.0,2074.0,3056057.0,
2474.0,4051.0,1819.0,2081.0,3056060.0,
2479.0,4052.0,1829.0,2086.0,3056064.0,
2477.0,4051.0,1841.0,2091.0,3056068.0,
2471.0,4053.0,1856.0,2102.0,3056072.0,
2472.0,4052.0,1872.0,2106.0,3056076.0,
2474.0,4053.0,1897.0,2112.0,3056079.0,
2477.0,4052.0,1926.0,2115.0,3056083.0,
2476.0,4053.0,1961.0,2125.0,3056088.0,
2473.0,4051.0,2000.0,2126.0,3056092.0,
2472.0,4055.0,2042.0,2130.0,3056096.0,
2474.0,4052.0,2090.0,2134.0,3056099.0,
2477.0,4051.0,2139.0,2139.0,3056103.0,
2477.0,4052.0,2195.0,2141.0,3056107.0,
2472.0,4051.0,2251.0,2145.0,3056111.0,
2472.0,4053.0,2313.0,2146.0,3056115.0,
2475.0,4052.0,2375.0,2149.0,3056118.0,
2476.0,4053.0,2444.0,2150.0,3056122.0,
2477.0,4051.0,2507.0,2151.0,3056126.0,
2474.0,4053.0,2573.0,2154.0,3056130.0,
2472.0,4051.0,2634.0,2155.0,3056134.0,
2473.0,4052.0,2696.0,2156.0,3056137.0,
2476.0,4050.0,2757.0,2153.0,3056141.0,
2477.0,4050.0,2816.0,2154.0,3056145.0,
2475.0,4052.0,2874.0,2152.0,3056149.0,
2470.0,4052.0,2926.0,2155.0,3056153.0,
2472.0,4050.0,2975.0,2154.0,3056157.0,
2474.0,4052.0,3019.0,2154.0,3056160.0,
2477.0,4053.0,3061.0,2153.0,3056164.0,
2475.0,4052.0,3093.0,2153.0,3056168.0,
2472.0,4052.0,3128.0,2150.0,3056172.0,
2472.0,4053.0,3153.0,2148.0,3056176.0,
2476.0,4052.0,3176.0,2146.0,3056180.0,
2477.0,4052.0,3194.0,2146.0,3056184.0,
2477.0,4051.0,3208.0,2143.0,3056188.0,
2473.0,4053.0,3215.0,2142.0,3056191.0,
2472.0,4052.0,3217.0,2138.0,3056195.0,
2477.0,4052.0,3212.0,2134.0,3056202.0,
2477.0,4050.0,3197.0,2132.0,3056206.0,
2474.0,4055.0,3183.0,2130.0,3056210.0,
2471.0,4051.0,3167.0,2127.0,3056214.0,
2473.0,4053.0,3148.0,2127.0,3056218.0,
2476.0,4052.0,3126.0,2122.0,3056222.0,
2478.0,4053.0,3105.0,2120.0,3056226.0,
2474.0,4050.0,3078.0,2113.0,3056230.0,
2472.0,4053.0,3048.0,2111.0,3056233.0,
2472.0,4053.0,3020.0,2111.0,3056237.0,
2476.0,4051.0,2987.0,2101.0,3056242.0,
2477.0,4051.0,2957.0,2100.0,3056245.0,
2475.0,4052.0,2920.0,2098.0,3056249.0,
2473.0,4051.0,2889.0,2092.0,3056253.0,
2473.0,4052.0,2856.0,2091.0,3056257.0,
2476.0,4051.0,2820.0,2082.0,3056261.0,
2477.0,4052.0,2785.0,2082.0,3056265.0,
2476.0,4050.0,2755.0,2078.0,3056269.0,
2473.0,4053.0,2723.0,2072.0,3056272.0,
2473.0,4051.0,2698.0,2070.0,3056276.0,
2474.0,4051.0,2667.0,2065.0,3056280.0,
2478.0,4051.0,2636.0,2061.0,3056284.0,
2476.0,4053.0,2602.0,2059.0,3056288.0,
2473.0,4050.0,2571.0,2056.0,3056292.0,
2473.0,4052.0,2537.0,2051.0,3056295.0,
2476.0,4052.0,2503.0,2050.0,3056299.0,
2477.0,4053.0,2469.0,2044.0,3056303.0,
2476.0,4051.0,2434.0,2043.0,3056307.0,
2474.0,4052.0,2400.0,2041.0,3056311.0,
2472.0,4051.0,2371.0,2039.0,3056315.0,
2474.0,4052.0,2336.0,2037.0,3056318.0,
2478.0,4053.0,2306.0,2036.0,3056322.0,
2476.0,4051.0,2276.0,2032.0,3056326.0,
2474.0,4051.0,2248.0,2032.0,3056330.0,
2471.0,4052.0,2223.0,2035.0,3056334.0,
2474.0,4050.0,2197.0,2030.0,3056338.0,
2476.0,4052.0,2170.0,2032.0,3056341.0,
2478.0,4052.0,2146.0,2031.0,3056345.0,
2474.0,4052.0,2118.0,2033.0,3056350.0,
2471.0,4053.0,2088.0,2031.0,3056354.0,
2473.0,4051.0,2067.0,2032.0,3056358.0,
2477.0,4051.0,2043.0,2031.0,3056362.0,
2477.0,4052.0,2026.0,2031.0,3056366.0,
2472.0,4053.0,2009.0,2031.0,3056370.0,
2472.0,4053.0,1996.0,2031.0,3056374.0,
2473.0,4053.0,1981.0,2030.0,3056377.0,
2477.0,4049.0,1970.0,2032.0,3056381.0,
2477.0,4052.0,1958.0,2032.0,3056385.0,
2475.0,4051.0,1956.0,2029.0,3056389.0,
2472.0,4051.0,1947.0,2030.0,3056393.0,
2474.0,4052.0,1940.0,2030.0,3056397.0,
2476.0,4050.0,1941.0,2029.0,3056401.0,
2479.0,4051.0,1941.0,2029.0,3056404.0,
2475.0,4053.0,1943.0,2031.0,3056408.0,
2473.0,4053.0,1947.0,2032.0,3056412.0,
2472.0,4052.0,1953.0,2031.0,3056416.0,
2476.0,4053.0,1962.0,2028.0,3056420.0,
2477.0,4053.0,1969.0,2028.0,3056424.0,
2475.0,4051.0,1975.0,2029.0,3056427.0,
2473.0,4051.0,1988.0,2027.0,3056431.0,
2471.0,4050.0,1992.0,2025.0,3056435.0,
2474.0,4050.0,2006.0,2026.0,3056439.0,
2477.0,4052.0,2016.0,2026.0,3056443.0,
2476.0,4050.0,2024.0,2023.0,3056447.0,
2472.0,4050.0,2034.0,2021.0,3056451.0,
2471.0,4051.0,2038.0,2025.0,3056454.0,
2473.0,4054.0,2047.0,2026.0,3056458.0,
2477.0,4050.0,2050.0,2022.0,3056462.0,
2476.0,4052.0,2055.0,2020.0,3056466.0,
2474.0,4053.0,2059.0,2022.0,3056470.0,
2471.0,4051.0,2059.0,2020.0,3056474.0,
2472.0,4052.0,2058.0,2018.0,3056477.0,
2477.0,4051.0,2057.0,2018.0,3056481.0,
2477.0,4051.0,2056.0,2018.0,3056485.0,
2476.0,4050.0,2057.0,2017.0,3056489.0,
2472.0,4053.0,2051.0,2017.0,3056493.0,
2473.0,4050.0,2051.0,2014.0,3056497.0,
2477.0,4053.0,2047.0,2014.0,3056500.0,
2477.0,4051.0,2041.0,2015.0,3056504.0,
2474.0,4051.0,2029.0,2014.0,3056509.0,
2472.0,4052.0,2026.0,2012.0,3056513.0,
2472.0,4052.0,2019.0,2008.0,3056516.0,
2475.0,4052.0,2008.0,2007.0,3056520.0,
2477.0,4052.0,2004.0,2007.0,3056524.0,
2474.0,4052.0,1996.0,2006.0,3056528.0,
2472.0,4052.0,1987.0,2004.0,3056532.0,
2472.0,4051.0,1980.0,2003.0,3056536.0,
2475.0,4050.0,1971.0,2002.0,3056540.0,
2476.0,4052.0,1963.0,2002.0,3056544.0,
2476.0,4051.0,1951.0,2000.0,3056548.0,
2474.0,4052.0,1941.0,2000.0,3056551.0,
2471.0,4052.0,1929.0,2001.0,3056555.0,
2474.0,4052.0,1915.0,1996.0,3056559.0,
2476.0,4051.0,1905.0,1996.0,3056563.0,
2477.0,4050.0,1892.0,1995.0,3056567.0,
2473.0,4050.0,1879.0,1995.0,3056571.0,
2471.0,4052.0,1868.0,1994.0,3056575.0,
2474.0,4051.0,1858.0,1992.0,3056579.0,
2477.0,4052.0,1853.0,1993.0,3056583.0,
2477.0,4051.0,1846.0,1993.0,3056587.0,
2473.0,4051.0,1840.0,1994.0,3056590.0,
2471.0,4053.0,1833.0,1993.0,3056594.0,
2475.0,4050.0,1829.0,1990.0,3056598.0,
2478.0,4052.0,1820.0,1988.0,3056602.0,
2477.0,4051.0,1810.0,1991.0,3056606.0,
2473.0,4051.0,1802.0,1990.0,3056609.0,
2472.0,4051.0,1797.0,1988.0,3056613.0,
2473.0,4051.0,1791.0,1988.0,3056617.0,
2475.0,4052.0,1785.0,1988.0,3056621.0,
2477.0,4051.0,1776.0,1991.0,3056625.0,
2475.0,4050.0,1770.0,1990.0,3056629.0,
2472.0,4050.0,1765.0,1991.0,3056633.0,
2472.0,4051.0,1757.0,1990.0,3056636.0,
2475.0,4052.0,1751.0,1991.0,3056640.0,
2480.0,4050.0,1752.0,1990.0,3056644.0,
2475.0,4051.0,1754.0,1991.0,3056648.0,
2472.0,4051.0,1749.0,1988.0,3056652.0,
2473.0,4050.0,1752.0,1989.0,3056656.0,
2474.0,4051.0,1747.0,1990.0,3056659.0,
2477.0,4053.0,1748.0,1992.0,3056663.0,
2476.0,4051.0,1750.0,1990.0,3056667.0,
2473.0,4051.0,1750.0,1991.0,3056671.0,
2473.0,4051.0,1751.0,1993.0,3056675.0,
2474.0,4050.0,1747.0,1992.0,3056679.0,
2477.0,4051.0,1749.0,1993.0,3056683.0,
2477.0,4051.0,1747.0,1996.0,3056686.0,
2473.0,4054.0,1747.0,1995.0,3056690.0,
2471.0,4051.0,1744.0,1994.0,3056694.0,
2473.0,4052.0,1744.0,1995.0,3056698.0,
2477.0,4051.0,1744.0,1995.0,3056702.0,
2477.0,4052.0,1744.0,1998.0,3056705.0,
2474.0,4050.0,1748.0,1995.0,3056709.0,
2471.0,4051.0,1750.0,1995.0,3056713.0,
2473.0,4052.0,1750.0,1997.0,3056717.0,
2476.0,4052.0,1751.0,1997.0,3056721.0,
2477.0,4053.0,1753.0,1995.0,3056725.0,
2475.0,4052.0,1757.0,1994.0,3056728.0,
2471.0,4053.0,1759.0,1994.0,3056732.0,
2471.0,4052.0,1759.0,1994.0,3056736.0,
2474.0,4051.0,1761.0,1993.0,3056740.0,
2477.0,4052.0,1759.0,1991.0,3056744.0,
2475.0,4051.0,1764.0,1990.0,3056748.0,
2472.0,4051.0,1762.0,1991.0,3056751.0,
2472.0,4052.0,1762.0,1992.0,3056755.0,
2475.0,4050.0,1763.0,1989.0,3056759.0,
2477.0,4052.0,1765.0,1992.0,3056763.0,
2477.0,4051.0,1763.0,1991.0,3056767.0,
2473.0,4051.0,1762.0,1991.0,3056771.0,
2471.0,4051.0,1760.0,1991.0,3056774.0,
2475.0,4052.0,1757.0,1991.0,3056778.0,
2478.0,4052.0,1751.0,1996.0,3056782.0,
2477.0,4051.0,1754.0,1995.0,3056786.0,
2474.0,4051.0,1748.0,1996.0,3056790.0,
2472.0,4051.0,1749.0,2000.0,3056794.0,
2474.0,4051.0,1745.0,2002.0,3056798.0,
2476.0,4050.0,1746.0,2006.0,3056802.0,
2476.0,4052.0,1738.0,2014.0,3056805.0,
2474.0,4052.0,1740.0,2018.0,3056809.0,
2471.0,4050.0,1739.0,2022.0,3056813.0,
2473.0,4051.0,1738.0,2029.0,3056817.0,
2475.0,4051.0,1739.0,2034.0,3056821.0,
2478.0,4051.0,1746.0,2041.0,3056825.0,
2474.0,4051.0,1746.0,2047.0,3056828.0,
2473.0,4053.0,1755.0,2060.0,3056832.0,
2471.0,4052.0,1764.0,2065.0,3056836.0,
2475.0,4050.0,1773.0,2070.0,3056840.0,
2477.0,4052.0,1787.0,2081.0,3056844.0,
2475.0,4051.0,1802.0,2087.0,3056848.0,
2472.0,4052.0,1817.0,2094.0,3056851.0,
2472.0,4051.0,1838.0,2098.0,3056855.0,
2475.0,4052.0,1869.0,2105.0,3056859.0,
2477.0,4049.0,1898.0,2109.0,3056863.0,
2475.0,4052.0,1930.0,2121.0,3056867.0,
2472.0,4051.0,1971.0,2123.0,3056871.0,
2471.0,4053.0,2009.0,2130.0,3056874.0,
2475.0,4053.0,2051.0,2136.0,3056878.0,
2477.0,4052.0,2104.0,2138.0,3056882.0,
2475.0,4051.0,2155.0,2138.0,3056886.0,
2472.0,4052.0,2210.0,2141.0,3056890.0,
2471.0,4050.0,2266.0,2148.0,3056894.0,
2474.0,4053.0,2322.0,2150.0,3056898.0,
2477.0,4051.0,2381.0,2152.0,3056902.0,
2477.0,4052.0,2440.0,2151.0,3056905.0,
2473.0,4051.0,2504.0,2152.0,3056909.0,
2471.0,4051.0,2563.0,2155.0,3056913.0,
2473.0,4051.0,2622.0,2152.0,3056917.0,
2477.0,4052.0,2678.0,2153.0,3056921.0,
2477.0,4051.0,2736.0,2153.0,3056925.0,
2474.0,4053.0,2789.0,2153.0,3056928.0,
2472.0,4053.0,2838.0,2151.0,3056932.0,
2472.0,4053.0,2884.0,2151.0,3056936.0,
2476.0,4051.0,2928.0,2149.0,3056940.0,
2473.0,4051.0,2968.0,2152.0,3056944.0,
2475.0,4051.0,3002.0,2147.0,3056948.0,
2472.0,4052.0,3035.0,2149.0,3056952.0,
2472.0,4052.0,3061.0,2143.0,3056955.0,
2475.0,4051.0,3084.0,2142.0,3056959.0,
2477.0,4052.0,3101.0,2142.0,3056963.0,
2476.0,4052.0,3111.0,2138.0,3056967.0,
2473.0,4051.0,3117.0,2136.0,3056971.0,
2473.0,4052.0,3126.0,2136.0,3056974.0,
2475.0,4050.0,3127.0,2133.0,3056978.0,
2477.0,4050.0,3124.0,2130.0,3056982.0,
2477.0,4054.0,3117.0,2129.0,3056986.0,
2473.0,4051.0,3109.0,2128.0,3056990.0,
2471.0,4052.0,3092.0,2127.0,3056994.0,
2474.0,4051.0,3075.0,2122.0,3056997.0,
2476.0,4051.0,3056.0,2121.0,3057001.0,
2477.0,4052.0,3033.0,2117.0,3057005.0,
2474.0,4051.0,3007.0,2114.0,3057009.0,
2472.0,4052.0,2981.0,2113.0,3057013.0,
2473.0,4051.0,2953.0,2106.0,3057017.0,
2476.0,4052.0,2925.0,2106.0,3057021.0,
2477.0,4051.0,2899.0,2101.0,3057024.0,
2474.0,4052.0,2870.0,2096.0,3057028.0,
2472.0,4051.0,2838.0,2091.0,3057032.0,
2472.0,4051.0,2805.0,2090.0,3057037.0,
2477.0,4051.0,2766.0,2083.0,3057041.0,
2477.0,4050.0,2735.0,2079.0,3057045.0,
2474.0,4052.0,2704.0,2072.0,3057049.0,
2472.0,4053.0,2673.0,2073.0,3057053.0,
2473.0,4049.0,2638.0,2067.0,3057057.0,
2476.0,4052.0,2605.0,2064.0,3057060.0,
2477.0,4050.0,2571.0,2059.0,3057064.0,
2475.0,4051.0,2536.0,2056.0,3057068.0,
2472.0,4053.0,2503.0,2054.0,3057072.0,
2472.0,4051.0,2471.0,2050.0,3057076.0,
2476.0,4051.0,2439.0,2048.0,3057080.0,
2478.0,4051.0,2406.0,2045.0,3057083.0,
2474.0,4052.0,2378.0,2044.0,3057087.0,
2472.0,4052.0,2345.0,2040.0,3057091.0,
2472.0,4049.0,2315.0,2037.0,3057095.0,
2475.0,4052.0,2285.0,2037.0,3057099.0,
2477.0,4051.0,2255.0,2034.0,3057102.0,
2476.0,4052.0,2225.0,2032.0,3057106.0,
2472.0,4051.0,2200.0,2030.0,3057110.0,
2472.0,4053.0,2169.0,2033.0,3057114.0,
2474.0,4050.0,2144.0,2030.0,3057118.0,
2476.0,4052.0,2119.0,2030.0,3057121.0,
2476.0,4053.0,2093.0,2030.0,3057125.0,
2472.0,4052.0,2069.0,2032.0,3057129.0,
2471.0,4050.0,2048.0,2028.0,3057133.0,
2473.0,4053.0,2028.0,2033.0,3057137.0,
2476.0,4052.0,2012.0,2034.0,3057141.0,
2477.0,4052.0,1994.0,2028.0,3057144.0,
2475.0,4051.0,1984.0,2030.0,3057148.0,
2471.0,4051.0,1965.0,2030.0,3057152.0,
2471.0,4051.0,1953.0,2030.0,3057156.0,
2477.0,4051.0,1943.0,2032.0,3057160.0,
2477.0,4050.0,1935.0,2033.0,3057164.0,
2475.0,4051.0,1929.0,2031.0,3057167.0,
2472.0,4052.0,1925.0,2032.0,3057171.0,
2470.0,4052.0,1919.0,2032.0,3057175.0,
2476.0,4051.0,1916.0,2034.0,3057179.0,
2478.0,4053.0,1914.0,2033.0,3057183.0,
2476.0,4052.0,1911.0,2033.0,3057187.0,
2472.0,4053.0,1913.0,2031.0,3057190.0,
2472.0,4051.0,1910.0,2033.0,3057194.0,
2475.0,4051.0,1913.0,2031.0,3057198.0,
2477.0,4051.0,1916.0,2031.0,3057202.0,
2476.0,4051.0,1919.0,2030.0,3057206.0,
2473.0,4050.0,1923.0,2032.0,3057210.0,
2474.0,4052.0,1934.0,2031.0,3057216.0,
2476.0,4051.0,1942.0,2029.0,3057221.0,
2477.0,4052.0,1950.0,2029.0,3057225.0,
2473.0,4050.0,1963.0,2027.0,3057229.0,
2470.0,4050.0,1972.0,2027.0,3057233.0,
2475.0,4052.0,1984.0,2027.0,3057237.0,
2476.0,4051.0,1993.0,2026.0,3057241.0,
2477.0,4051.0,1997.0,2027.0,3057244.0,
2474.0,4052.0,2003.0,2025.0,3057248.0,
2472.0,4052.0,2012.0,2023.0,3057252.0,
2472.0,4051.0,2017.0,2023.0,3057256.0,
2475.0,4051.0,2017.0,2022.0,3057260.0,
2477.0,4051.0,2019.0,2022.0,3057263.0,
2475.0,4053.0,2021.0,2020.0,3057268.0,
2473.0,4052.0,2023.0,2018.0,3057271.0,
2473.0,4052.0,2024.0,2018.0,3057275.0,
2476.0,4053.0,2021.0,2018.0,3057279.0,
2477.0,4051.0,2021.0,2015.0,3057283.0,
2475.0,4052.0,2016.0,2016.0,3057287.0,
2472.0,4050.0,2014.0,2016.0,3057291.0,
2472.0,4051.0,2008.0,2014.0,3057294.0,
2477.0,4054.0,2006.0,2012.0,3057298.0,
2478.0,4052.0,2000.0,2016.0,3057302.0,
2478.0,4053.0,1993.0,2012.0,3057306.0,
2473.0,4053.0,1981.0,2012.0,3057310.0,
2472.0,4052.0,1973.0,2011.0,3057314.0,
2475.0,4051.0,1961.0,2012.0,3057317.0,
2477.0,4053.0,1951.0,2012.0,3057321.0,
2476.0,4050.0,1941.0,2010.0,3057325.0,
2472.0,4051.0,1932.0,2008.0,3057329.0,
2472.0,4051.0,1922.0,2008.0,3057333.0,
2474.0,4051.0,1912.0,2009.0,3057337.0,
2477.0,4051.0,1902.0,2007.0,3057341.0,
2477.0,4051.0,1888.0,2007.0,3057345.0,
2473.0,4050.0,1883.0,2008.0,3057349.0,
2472.0,4051.0,1873.0,2004.0,3057352.0,
2473.0,4051.0,1865.0,2007.0,3057356.0,
2476.0,4050.0,1859.0,2008.0,3057360.0,
2478.0,4051.0,1852.0,2007.0,3057364.0,
2474.0,4051.0,1847.0,2008.0,3057368.0,
2471.0,4052.0,1837.0,2008.0,3057371.0,
2472.0,4051.0,1832.0,2007.0,3057375.0,
2476.0,4051.0,1827.0,2007.0,3057379.0,
2478.0,4051.0,1820.0,2004.0,3057383.0,
2475.0,4052.0,1811.0,2006.0,3057387.0,
2472.0,4050.0,1802.0,2006.0,3057391.0,
2472.0,4051.0,1794.0,2005.0,3057394.0,
2475.0,4051.0,1783.0,2003.0,3057398.0,
2477.0,4050.0,1775.0,2003.0,3057402.0,
2476.0,4051.0,1767.0,2003.0,3057406.0,
2472.0,4050.0,1765.0,2004.0,3057410.0,
2472.0,4052.0,1757.0,2003.0,3057414.0,
2475.0,4051.0,1753.0,2002.0,3057417.0,
2477.0,4052.0,1744.0,2003.0,3057421.0,
2477.0,4050.0,1742.0,2002.0,3057425.0,
2472.0,4051.0,1739.0,2002.0,3057429.0,
2472.0,4051.0,1738.0,2002.0,3057433.0,
2474.0,4051.0,1735.0,2000.0,3057437.0,
2476.0,4051.0,1735.0,2002.0,3057440.0,
2475.0,4051.0,1733.0,1999.0,3057444.0,
2474.0,4053.0,1733.0,2001.0,3057448.0,
2472.0,4053.0,1735.0,2001.0,3057452.0,
2473.0,4052.0,1735.0,2000.0,3057456.0,
2476.0,4053.0,1733.0,2001.0,3057460.0,
2475.0,4052.0,1733.0,1999.0,3057463.0,
2474.0,4052.0,1738.0,1998.0,3057467.0,
2472.0,4052.0,1742.0,1999.0,3057471.0,
2471.0,4051.0,1743.0,1997.0,3057475.0,
2476.0,4051.0,1746.0,1995.0,3057479.0,
2477.0,4050.0,1752.0,1996.0,3057483.0,
2474.0,4050.0,1751.0,1996.0,3057487.0,
2471.0,4051.0,1755.0,1996.0,3057491.0,
2473.0,4052.0,1754.0,1996.0,3057494.0,
2475.0,4052.0,1755.0,1995.0,3057498.0,
2476.0,4051.0,1753.0,1997.0,3057502.0,
2476.0,4049.0,1752.0,1993.0,3057506.0,
2471.0,4050.0,1748.0,1994.0,3057510.0,
2471.0,4052.0,1749.0,1992.0,3057514.0,
2475.0,4052.0,1747.0,1992.0,3057518.0,
2477.0,4051.0,1750.0,1991.0,3057522.0,
2475.0,4051.0,1747.0,1991.0,3057526.0,
2472.0,4051.0,1749.0,1994.0,3057530.0,
2471.0,4051.0,1749.0,1993.0,3057533.0,
2475.0,4051.0,1751.0,1995.0,3057537.0,
2476.0,4052.0,1751.0,1992.0,3057541.0,
2474.0,4050.0,1747.0,1996.0,3057545.0,
2472.0,4051.0,1747.0,1998.0,3057549.0,
2471.0,4052.0,1746.0,2000.0,3057553.0,
2474.0,4053.0,1745.0,2000.0,3057556.0,
2477.0,4050.0,1740.0,2002.0,3057560.0,
2477.0,4051.0,1741.0,2007.0,3057564.0,
2473.0,4051.0,1740.0,2010.0,3057568.0,
2472.0,4052.0,1738.0,2010.0,3057572.0,
2473.0,4051.0,1736.0,2015.0,3057576.0,
2476.0,4051.0,1734.0,2021.0,3057580.0,
2475.0,4051.0,1728.0,2025.0,3057584.0,
2475.0,4052.0,1726.0,2032.0,3057587.0,
2471.0,4051.0,1723.0,2039.0,3057591.0,
2473.0,4053.0,1721.0,2045.0,3057595.0,
2476.0,4052.0,1723.0,2049.0,3057599.0,
2477.0,4051.0,1724.0,2054.0,3057603.0,
2474.0,4054.0,1725.0,2066.0,3057607.0,
2472.0,4051.0,1728.0,2072.0,3057610.0,
2472.0,4051.0,1732.0,2077.0,3057614.0,
2476.0,4051.0,1738.0,2087.0,3057618.0,
2478.0,4052.0,1747.0,2092.0,3057622.0,
2476.0,4051.0,1758.0,2099.0,3057626.0,
2472.0,4053.0,1772.0,2099.0,3057630.0,
2473.0,4051.0,1790.0,2112.0,3057634.0,
2476.0,4052.0,1813.0,2116.0,3057638.0,
2477.0,4054.0,1839.0,2124.0,3057642.0,
2475.0,4052.0,1867.0,2126.0,3057646.0,
2472.0,4051.0,1905.0,2128.0,3057650.0,
2472.0,4051.0,1942.0,2132.0,3057654.0,
2475.0,4052.0,1983.0,2138.0,3057658.0,
2476.0,4050.0,2029.0,2138.0,3057662.0,
2475.0,4052.0,2078.0,2141.0,3057665.0,
2472.0,4053.0,2133.0,2145.0,3057669.0,
2472.0,4052.0,2188.0,2145.0,3057673.0,
2474.0,4052.0,2243.0,2149.0,3057677.0,
2477.0,4051.0,2297.0,2148.0,3057681.0,
2478.0,4053.0,2354.0,2151.0,3057684.0,
2474.0,4081.0,2411.0,2150.0,3057688.0,
2472.0,4052.0,2468.0,2150.0,3057693.0,
2474.0,4053.0,2517.0,2150.0,3057696.0,
2477.0,4051.0,2569.0,2150.0,3057700.0,
2477.0,4049.0,2614.0,2150.0,3057704.0,
2474.0,4053.0,2660.0,2151.0,3057708.0,
2472.0,4051.0,2704.0,2149.0,3057712.0,
2474.0,4051.0,2743.0,2149.0,3057715.0,
2476.0,4052.0,2775.0,2149.0,3057719.0,
2477.0,4051.0,2804.0,2146.0,3057723.0,
2474.0,4050.0,2835.0,2146.0,3057727.0,
2472.0,4052.0,2861.0,2144.0,3057731.0,
2472.0,4050.0,2876.0,2140.0,3057735.0,
2476.0,4052.0,2893.0,2140.0,3057739.0,
2477.0,4051.0,2904.0,2138.0,3057742.0,
2475.0,4051.0,2912.0,2135.0,3057746.0,
2472.0,4052.0,2917.0,2133.0,3057750.0,
2472.0,4052.0,2916.0,2129.0,3057754.0,
2476.0,4052.0,2913.0,2126.0,3057758.0,
2478.0,4051.0,2905.0,2125.0,3057762.0,
2475.0,4050.0,2893.0,2119.0,3057766.0,
2472.0,4054.0,2882.0,2119.0,3057770.0,
2472.0,4051.0,2863.0,2117.0,3057774.0,
2474.0,4053.0,2844.0,2115.0,3057777.0,
2477.0,4052.0,2820.0,2114.0,3057781.0,
2477.0,4052.0,2798.0,2108.0,3057785.0,
2472.0,4052.0,2770.0,2104.0,3057789.0,
2472.0,4051.0,2744.0,2098.0,3057793.0,
2475.0,4053.0,2718.0,2099.0,3057797.0,
2477.0,4051.0,2688.0,2093.0,3057800.0,
2477.0,4050.0,2658.0,2087.0,3057804.0,
2473.0,4053.0,2627.0,2084.0,3057808.0,
2472.0,4051.0,2596.0,2080.0,3057812.0,
2474.0,4052.0,2566.0,2080.0,3057816.0,
2476.0,4051.0,2532.0,2074.0,3057819.0,
2476.0,4052.0,2500.0,2071.0,3057823.0,
2474.0,4051.0,2470.0,2067.0,3057827.0,
2472.0,4053.0,2441.0,2066.0,3057831.0,
2472.0,4050.0,2412.0,2060.0,3057835.0,
2476.0,4052.0,2381.0,2057.0,3057838.0,
2477.0,4052.0,2357.0,2056.0,3057842.0,
2475.0,4051.0,2326.0,2055.0,3057846.0,
2472.0,4051.0,2301.0,2051.0,3057850.0,
2472.0,4051.0,2273.0,2048.0,3057854.0,
2476.0,4053.0,2244.0,2049.0,3057858.0,
2477.0,4051.0,2218.0,2046.0,3057862.0,
2475.0,4052.0,2192.0,2044.0,3057866.0,
2472.0,4051.0,2161.0,2042.0,3057869.0,
2472.0,4053.0,2134.0,2044.0,3057873.0,
2475.0,4052.0,2107.0,2041.0,3057877.0,
2478.0,4052.0,2076.0,2041.0,3057881.0,
2476.0,4051.0,2046.0,2039.0,3057885.0,
2473.0,4051.0,2022.0,2038.0,3057889.0,
2472.0,4051.0,1995.0,2038.0,3057893.0,
2473.0,4051.0,1973.0,2037.0,3057896.0,
2478.0,4052.0,1949.0,2040.0,3057900.0,
2477.0,4053.0,1927.0,2040.0,3057904.0,
2473.0,4051.0,1908.0,2038.0,3057908.0,
2472.0,4050.0,1891.0,2035.0,3057912.0,
2474.0,4051.0,1879.0,2037.0,3057916.0,
2477.0,4052.0,1862.0,2037.0,3057920.0,
2477.0,4050.0,1851.0,2036.0,3057924.0,
2473.0,4052.0,1841.0,2035.0,3057928.0,
2468.0,4051.0,1830.0,2034.0,3057931.0,
2473.0,4050.0,1826.0,2036.0,3057935.0,
2476.0,4051.0,1819.0,2038.0,3057939.0,
2477.0,4051.0,1816.0,2037.0,3057943.0,
2473.0,4051.0,1814.0,2036.0,3057947.0,
2472.0,4052.0,1814.0,2038.0,3057951.0,
2473.0,4050.0,1817.0,2035.0,3057955.0,
2476.0,4050.0,1819.0,2035.0,3057959.0,
2477.0,4051.0,1825.0,2035.0,3057963.0,
2475.0,4052.0,1831.0,2037.0,3057967.0,
2471.0,4051.0,1841.0,2037.0,3057971.0,
2473.0,4052.0,1850.0,2038.0,3057975.0,
2476.0,4052.0,1857.0,2037.0,3057978.0,
2477.0,4052.0,1865.0,2037.0,3057982.0,
2475.0,4052.0,1876.0,2033.0,3057986.0,
2471.0,4052.0,1884.0,2036.0,3057990.0,
2472.0,4051.0,1895.0,2036.0,3057994.0,
2475.0,4051.0,1908.0,2034.0,3057997.0,
2477.0,4051.0,1915.0,2034.0,3058001.0,
2475.0,4052.0,1929.0,2033.0,3058005.0,
2472.0,4051.0,1935.0,2032.0,3058009.0,
2471.0,4052.0,1946.0,2032.0,3058013.0,
2476.0,4053.0,1953.0,2031.0,3058017.0,
2478.0,4052.0,1961.0,2031.0,3058020.0,
2475.0,4051.0,1965.0,2027.0,3058024.0,
2473.0,4051.0,1970.0,2026.0,3058028.0,
2472.0,4052.0,1974.0,2026.0,3058032.0,
2474.0,4051.0,1975.0,2023.0,3058036.0,
2476.0,4052.0,1976.0,2022.0,3058040.0,
2476.0,4051.0,1977.0,2023.0,3058043.0,
2474.0,4052.0,1977.0,2019.0,3058047.0,
2470.0,4051.0,1977.0,2020.0,3058051.0,
2473.0,4051.0,1971.0,2019.0,3058055.0,
2476.0,4051.0,1971.0,2017.0,3058059.0,
2477.0,4051.0,1964.0,2018.0,3058062.0,
2475.0,4053.0,1957.0,2017.0,3058066.0,
2471.0,4051.0,1950.0,2014.0,3058070.0,
2473.0,4051.0,1940.0,2014.0,3058074.0,
2476.0,4050.0,1934.0,2014.0,3058078.0,
2477.0,4051.0,1927.0,2013.0,3058082.0,
2475.0,4050.0,1915.0,2013.0,3058085.0,
2473.0,4054.0,1905.0,2015.0,3058089.0,
2472.0,4051.0,1893.0,2009.0,3058093.0,
2475.0,4051.0,1879.0,2009.0,3058097.0,
2478.0,4051.0,1871.0,2007.0,3058101.0,
2475.0,4052.0,1861.0,2008.0,3058105.0,
2472.0,4051.0,1846.0,2006.0,3058108.0,
2472.0,4051.0,1835.0,2005.0,3058112.0,
2474.0,4052.0,1823.0,2003.0,3058116.0,
2477.0,4053.0,1812.0,2004.0,3058120.0,
2476.0,4053.0,1802.0,2003.0,3058124.0,
2473.0,4052.0,1792.0,2004.0,3058128.0,
2472.0,4054.0,1779.0,2006.0,3058132.0,
2474.0,4052.0,1767.0,2007.0,3058135.0,
2477.0,4051.0,1759.0,2002.0,3058139.0,
2476.0,4051.0,1748.0,2004.0,3058143.0,
2474.0,4051.0,1742.0,2005.0,3058147.0,
2472.0,4050.0,1728.0,2007.0,3058151.0,
2473.0,4050.0,1719.0,2006.0,3058154.0,
2476.0,4051.0,1711.0,2007.0,3058158.0,
2477.0,4051.0,1702.0,2008.0,3058162.0,
2474.0,4051.0,1693.0,2006.0,3058166.0,
2472.0,4051.0,1687.0,2008.0,3058170.0,
2473.0,4051.0,1683.0,2007.0,3058174.0,
2476.0,4051.0,1681.0,2008.0,3058178.0,
2477.0,4052.0,1678.0,2007.0,3058181.0,
2474.0,4052.0,1675.0,2009.0,3058185.0,
2472.0,4052.0,1675.0,2009.0,3058189.0,
2472.0,4053.0,1675.0,2006.0,3058193.0,
2476.0,4053.0,1673.0,2006.0,3058197.0,
2477.0,4052.0,1674.0,2006.0,3058200.0,
2476.0,4051.0,1673.0,2004.0,3058204.0,
2473.0,4052.0,1675.0,2005.0,3058208.0,
2472.0,4051.0,1674.0,2003.0,3058212.0,
2475.0,4052.0,1677.0,2002.0,3058216.0,
2476.0,4052.0,1674.0,2000.0,3058220.0,
2476.0,4051.0,1677.0,2001.0,3058223.0,
2470.0,4053.0,1678.0,2004.0,3058227.0,
2473.0,4052.0,1677.0,2004.0,3058233.0,
2476.0,4051.0,1680.0,2002.0,3058237.0,
2477.0,4052.0,1681.0,2002.0,3058240.0,
2476.0,4051.0,1679.0,1999.0,3058244.0,
2473.0,4052.0,1680.0,1999.0,3058248.0,
2472.0,4051.0,1681.0,1997.0,3058252.0,
2475.0,4051.0,1682.0,1998.0,3058256.0,
2474.0,4050.0,1682.0,1997.0,3058260.0,
2475.0,4052.0,1686.0,1993.0,3058264.0,
2473.0,4052.0,1688.0,1995.0,3058267.0,
2471.0,4052.0,1691.0,1995.0,3058271.0,
2474.0,4051.0,1690.0,1995.0,3058275.0,
2477.0,4051.0,1687.0,1993.0,3058279.0,
2477.0,4051.0,1690.0,1993.0,3058283.0,
2474.0,4051.0,1688.0,1997.0,3058287.0,
2471.0,4051.0,1686.0,1996.0,3058291.0,
2473.0,4052.0,1685.0,1996.0,3058294.0,
2476.0,4053.0,1682.0,1999.0,3058298.0,
2477.0,4052.0,1683.0,2000.0,3058302.0,
2473.0,4052.0,1681.0,2001.0,3058306.0,
2472.0,4051.0,1680.0,2005.0,3058310.0,
2473.0,4050.0,1681.0,2008.0,3058314.0,
2476.0,4051.0,1682.0,2012.0,3058318.0,
2477.0,4051.0,1685.0,2016.0,3058322.0,
2474.0,4051.0,1688.0,2021.0,3058326.0,
2472.0,4051.0,1689.0,2024.0,3058329.0,
2472.0,4052.0,1693.0,2035.0,3058333.0,
2476.0,4052.0,1695.0,2038.0,3058337.0,
2478.0,4054.0,1698.0,2043.0,3058341.0,
2475.0,4051.0,1706.0,2049.0,3058345.0,
2471.0,4053.0,1711.0,2061.0,3058349.0,
2472.0,4051.0,1718.0,2065.0,3058353.0,
2475.0,4052.0,1725.0,2073.0,3058356.0,
2476.0,4052.0,1731.0,2082.0,3058360.0,
2476.0,4052.0,1742.0,2085.0,3058364.0,
2473.0,4052.0,1758.0,2092.0,3058368.0,
2472.0,4051.0,1769.0,2097.0,3058372.0,
2475.0,4053.0,1786.0,2105.0,3058375.0,
2476.0,4053.0,1805.0,2111.0,3058379.0,
2476.0,4051.0,1825.0,2112.0,3058383.0,
2475.0,4053.0,1852.0,2122.0,3058387.0,
2472.0,4051.0,1877.0,2125.0,3058391.0,
2474.0,4052.0,1906.0,2130.0,3058395.0,
2479.0,4051.0,1938.0,2131.0,3058398.0,
2476.0,4051.0,1974.0,2136.0,3058403.0,
2473.0,4052.0,2013.0,2140.0,3058407.0,
2472.0,4050.0,2051.0,2142.0,3058411.0,
2474.0,4052.0,2097.0,2145.0,3058414.0,
2477.0,4052.0,2129.0,2149.0,3058418.0,
2477.0,4053.0,2171.0,2148.0,3058422.0,
2474.0,4050.0,2208.0,2149.0,3058426.0,
2472.0,4052.0,2243.0,2152.0,3058430.0,
2473.0,4050.0,2289.0,2151.0,3058433.0,
2476.0,4052.0,2324.0,2148.0,3058437.0,
2477.0,4050.0,2364.0,2150.0,3058441.0,
2476.0,4053.0,2397.0,2150.0,3058445.0,
2472.0,4052.0,2434.0,2148.0,3058449.0,
2472.0,4052.0,2464.0,2146.0,3058453.0,
2476.0,4051.0,2494.0,2144.0,3058457.0,
2478.0,4052.0,2524.0,2141.0,3058460.0,
2475.0,4052.0,2547.0,2138.0,3058464.0,
2473.0,4050.0,2566.0,2139.0,3058468.0,
2472.0,4051.0,2578.0,2134.0,3058472.0,
2475.0,4053.0,2588.0,2135.0,3058476.0,
2477.0,4052.0,2597.0,2129.0,3058480.0,
2476.0,4051.0,2598.0,2129.0,3058483.0,
2474.0,4051.0,2598.0,2123.0,3058487.0,
2471.0,4051.0,2590.0,2123.0,3058491.0,
2475.0,4053.0,2586.0,2120.0,3058495.0,
2477.0,4050.0,2577.0,2115.0,3058499.0,
2476.0,4053.0,2567.0,2116.0,3058503.0,
2473.0,4051.0,2553.0,2111.0,3058507.0,
2472.0,4052.0,2538.0,2110.0,3058511.0,
2474.0,4052.0,2523.0,2108.0,3058515.0,
2477.0,4053.0,2501.0,2105.0,3058518.0,
2477.0,4050.0,2483.0,2100.0,3058522.0,
2472.0,4052.0,2464.0,2097.0,3058526.0,
2471.0,4051.0,2444.0,2092.0,3058530.0,
2474.0,4052.0,2417.0,2090.0,3058534.0,
2476.0,4051.0,2393.0,2088.0,3058538.0,
2476.0,4051.0,2364.0,2082.0,3058542.0,
2473.0,4053.0,2336.0,2079.0,3058547.0,
2472.0,4051.0,2305.0,2076.0,3058551.0,
2474.0,4053.0,2282.0,2071.0,3058555.0,
2477.0,4051.0,2255.0,2065.0,3058559.0,
2477.0,4051.0,2235.0,2065.0,3058562.0,
2476.0,4053.0,2206.0,2064.0,3058566.0,
2472.0,4051.0,2184.0,2055.0,3058570.0,
2474.0,4052.0,2162.0,2058.0,3058574.0,
2476.0,4050.0,2137.0,2052.0,3058578.0,
2478.0,4053.0,2113.0,2049.0,3058581.0,
2474.0,4052.0,2093.0,2048.0,3058585.0,
2472.0,4051.0,2069.0,2043.0,3058589.0,
2473.0,4051.0,2049.0,2043.0,3058593.0,
2476.0,4053.0,2025.0,2041.0,3058597.0,
2477.0,4054.0,2002.0,2040.0,3058601.0,
2474.0,4051.0,1985.0,2038.0,3058605.0,
2472.0,4052.0,1958.0,2037.0,3058609.0,
2472.0,4052.0,1935.0,2035.0,3058613.0,
2476.0,4052.0,1915.0,2033.0,3058616.0,
2478.0,4052.0,1895.0,2030.0,3058620.0,
2476.0,4051.0,1876.0,2028.0,3058624.0,
2473.0,4051.0,1859.0,2030.0,3058628.0,
2472.0,4051.0,1840.0,2029.0,3058632.0,
2476.0,4051.0,1825.0,2025.0,3058636.0,
2477.0,4052.0,1807.0,2028.0,3058639.0,
2476.0,4051.0,1795.0,2026.0,3058643.0,
2472.0,4050.0,1785.0,2027.0,3058647.0,
2472.0,4051.0,1773.0,2026.0,3058651.0,
2474.0,4052.0,1765.0,2027.0,3058655.0,
2477.0,4050.0,1759.0,2026.0,3058659.0,
2476.0,4051.0,1751.0,2027.0,3058663.0,
2474.0,4050.0,1747.0,2027.0,3058666.0,
2472.0,4052.0,1744.0,2031.0,3058670.0,
2474.0,4051.0,1745.0,2029.0,3058674.0,
2477.0,4051.0,1748.0,2028.0,3058678.0,
2477.0,4051.0,1749.0,2029.0,3058682.0,
2474.0,4050.0,1753.0,2032.0,3058686.0,
2471.0,4081.0,1754.0,2034.0,3058689.0,
2473.0,4053.0,1761.0,2034.0,3058693.0,
2477.0,4052.0,1765.0,2035.0,3058697.0,
2477.0,4051.0,1774.0,2036.0,3058701.0,
2474.0,4051.0,1783.0,2034.0,3058705.0,
2472.0,4051.0,1791.0,2035.0,3058709.0,
2472.0,4050.0,1798.0,2034.0,3058713.0,
2475.0,4051.0,1805.0,2033.0,3058716.0,
2477.0,4052.0,1814.0,2033.0,3058720.0,
2476.0,4050.0,1822.0,2033.0,3058724.0,
2473.0,4050.0,1825.0,2032.0,3058728.0,
2472.0,4052.0,1831.0,2032.0,3058732.0,
2475.0,4051.0,1837.0,2032.0,3058735.0,
2477.0,4052.0,1845.0,2033.0,3058739.0,
2476.0,4051.0,1850.0,2029.0,3058743.0,
2473.0,4052.0,1859.0,2031.0,3058747.0,
2473.0,4051.0,1865.0,2030.0,3058751.0,
2474.0,4052.0,1868.0,2027.0,3058755.0,
2477.0,4051.0,1876.0,2031.0,3058758.0,
2477.0,4050.0,1877.0,2028.0,3058762.0,
2473.0,4052.0,1882.0,2028.0,3058766.0,
2472.0,4051.0,1878.0,2030.0,3058770.0,
2475.0,4051.0,1885.0,2028.0,3058774.0,
2477.0,4050.0,1887.0,2026.0,3058778.0,
2477.0,4051.0,1885.0,2026.0,3058782.0,
2470.0,4051.0,1883.0,2025.0,3058785.0,
2471.0,4050.0,1881.0,2026.0,3058789.0,
2473.0,4051.0,1874.0,2025.0,3058793.0,
2477.0,4051.0,1875.0,2028.0,3058797.0,
2477.0,4053.0,1865.0,2027.0,3058801.0,
2474.0,4052.0,1864.0,2027.0,3058805.0,
2472.0,4052.0,1860.0,2026.0,3058809.0,
2473.0,4053.0,1854.0,2024.0,3058812.0,
2476.0,4052.0,1845.0,2021.0,3058816.0,
2478.0,4052.0,1835.0,2018.0,3058820.0,
2475.0,4053.0,1828.0,2017.0,3058824.0,
2473.0,4052.0,1820.0,2015.0,3058828.0,
2473.0,4053.0,1811.0,2018.0,3058832.0,
2475.0,4052.0,1803.0,2015.0,3058836.0,
2479.0,4054.0,1792.0,2016.0,3058839.0,
2475.0,4050.0,1787.0,2011.0,3058843.0,
2473.0,4049.0,1777.0,2011.0,3058847.0,
2472.0,4051.0,1769.0,2011.0,3058851.0,
2475.0,4051.0,1761.0,2009.0,3058855.0,
2477.0,4051.0,1761.0,2009.0,3058859.0,
2475.0,4052.0,1756.0,2003.0,3058863.0,
2473.0,4052.0,1751.0,2003.0,3058866.0,
2473.0,4050.0,1746.0,2005.0,3058870.0,
2474.0,4051.0,1740.0,2003.0,3058874.0,
2477.0,4052.0,1735.0,2001.0,3058878.0,
2478.0,4051.0,1729.0,1998.0,3058882.0,
2473.0,4051.0,1726.0,1998.0,3058886.0,
2471.0,4050.0,1719.0,1996.0,3058889.0,
2476.0,4050.0,1716.0,1996.0,3058893.0,
2477.0,4051.0,1715.0,1997.0,3058897.0,
2478.0,4051.0,1710.0,1996.0,3058901.0,
2474.0,4051.0,1706.0,1999.0,3058905.0,
2471.0,4051.0,1701.0,1994.0,3058909.0,
2473.0,4050.0,1696.0,1997.0,3058913.0,
2478.0,4051.0,1697.0,1997.0,3058917.0,
2477.0,4051.0,1693.0,1997.0,3058921.0,
2474.0,4052.0,1690.0,1996.0,3058924.0,
2471.0,4052.0,1686.0,1996.0,3058928.0,
2473.0,4051.0,1683.0,1995.0,3058932.0,
2475.0,4051.0,1682.0,1995.0,3058936.0,
2477.0,4053.0,1678.0,1996.0,3058940.0,
2476.0,4051.0,1675.0,1994.0,3058944.0,
2471.0,4051.0,1673.0,1995.0,3058947.0,
2473.0,4052.0,1673.0,1997.0,3058951.0,
2475.0,4051.0,1672.0,1995.0,3058955.0,
2478.0,4051.0,1672.0,1992.0,3058959.0,
2477.0,4051.0,1665.0,1992.0,3058963.0,
2474.0,4052.0,1668.0,1993.0,3058966.0,
2471.0,4051.0,1665.0,1994.0,3058970.0,
2475.0,4050.0,1666.0,1993.0,3058974.0,
2478.0,4051.0,1662.0,1994.0,3058978.0,
2476.0,4051.0,1662.0,1993.0,3058982.0,
2472.0,4051.0,1657.0,1995.0,3058986.0,
2472.0,4051.0,1654.0,1994.0,3058990.0,
2473.0,4050.0,1656.0,1994.0,3058993.0,
2478.0,4051.0,1655.0,1994.0,3058997.0,
2476.0,4051.0,1654.0,1992.0,3059001.0,
2474.0,4051.0,1653.0,1993.0,3059005.0,
2472.0,4051.0,1652.0,1993.0,3059009.0,
2474.0,4051.0,1655.0,1995.0,3059013.0,
2476.0,4052.0,1656.0,1995.0,3059016.0,
2478.0,4053.0,1659.0,1996.0,3059020.0,
2476.0,4051.0,1661.0,1997.0,3059024.0,
2472.0,4051.0,1665.0,1995.0,3059028.0,
2473.0,4052.0,1671.0,1998.0,3059032.0,
2475.0,4050.0,1674.0,1999.0,3059036.0,
2477.0,4051.0,1677.0,2003.0,3059040.0,
2476.0,4050.0,1680.0,2006.0,3059043.0,
2473.0,4053.0,1688.0,2013.0,3059047.0,
2472.0,4052.0,1687.0,2017.0,3059051.0,
2475.0,4052.0,1690.0,2020.0,3059055.0,
2478.0,4050.0,1691.0,2028.0,3059059.0,
2477.0,4051.0,1693.0,2034.0,3059063.0,
2472.0,4052.0,1695.0,2041.0,3059067.0,
2471.0,4050.0,1696.0,2048.0,3059070.0,
2475.0,4053.0,1696.0,2059.0,3059074.0,
2477.0,4050.0,1697.0,2065.0,3059078.0,
2475.0,4053.0,1699.0,2076.0,3059082.0,
2474.0,4051.0,1704.0,2082.0,3059086.0,
2472.0,4051.0,1710.0,2089.0,3059090.0,
2474.0,4052.0,1720.0,2098.0,3059094.0,
2477.0,4052.0,1729.0,2108.0,3059098.0,
2477.0,4051.0,1739.0,2110.0,3059102.0,
2473.0,4050.0,1756.0,2121.0,3059106.0,
2472.0,4052.0,1773.0,2127.0,3059109.0,
2474.0,4053.0,1797.0,2133.0,3059113.0,
2477.0,4051.0,1821.0,2139.0,3059117.0,
2477.0,4052.0,1844.0,2143.0,3059121.0,
2476.0,4053.0,1872.0,2151.0,3059125.0,
2472.0,4051.0,1902.0,2152.0,3059129.0,
2473.0,4053.0,1939.0,2157.0,3059132.0,
2477.0,4051.0,1976.0,2159.0,3059136.0,
2477.0,4053.0,2013.0,2164.0,3059140.0,
2476.0,4051.0,2049.0,2165.0,3059144.0,
2472.0,4053.0,2090.0,2167.0,3059148.0,
2473.0,4051.0,2132.0,2168.0,3059151.0,
2476.0,4052.0,2174.0,2172.0,3059155.0,
2477.0,4049.0,2209.0,2170.0,3059159.0,
2476.0,4053.0,2252.0,2173.0,3059163.0,
2473.0,4050.0,2288.0,2174.0,3059167.0,
2472.0,4052.0,2325.0,2176.0,3059171.0,
2476.0,4051.0,2358.0,2175.0,3059175.0,
2477.0,4052.0,2388.0,2175.0,3059179.0,
2476.0,4050.0,2410.0,2173.0,3059182.0,
2472.0,4052.0,2437.0,2174.0,3059186.0,
2473.0,4051.0,2456.0,2171.0,3059190.0,
2475.0,4052.0,2476.0,2172.0,3059194.0,
2478.0,4051.0,2495.0,2171.0,3059198.0,
2477.0,4052.0,2503.0,2170.0,3059201.0,
2473.0,4053.0,2513.0,2167.0,3059205.0,
2472.0,4051.0,2520.0,2162.0,3059209.0,
2474.0,4052.0,2526.0,2163.0,3059213.0,
2477.0,4052.0,2526.0,2157.0,3059217.0,
2478.0,4052.0,2526.0,2158.0,3059221.0,
2474.0,4050.0,2520.0,2153.0,3059224.0,
2472.0,4052.0,2514.0,2152.0,3059228.0,
2473.0,4051.0,2504.0,2150.0,3059232.0,
2476.0,4053.0,2496.0,2150.0,3059236.0,
2478.0,4051.0,2480.0,2143.0,3059240.0,
2474.0,4052.0,2464.0,2143.0,3059243.0,
2473.0,4052.0,2448.0,2142.0,3059247.0,
2473.0,4052.0,2430.0,2140.0,3059251.0,
2476.0,4052.0,2415.0,2136.0,3059255.0,
2478.0,4052.0,2398.0,2136.0,3059259.0,
2475.0,4050.0,2380.0,2130.0,3059263.0,
2475.0,4053.0,2360.0,2128.0,3059266.0,
2473.0,4051.0,2341.0,2127.0,3059270.0,
2475.0,4051.0,2321.0,2123.0,3059274.0,
2477.0,4051.0,2301.0,2121.0,3059278.0,
2476.0,4051.0,2277.0,2113.0,3059282.0,
2473.0,4052.0,2261.0,2113.0,3059286.0,
2472.0,4051.0,2240.0,2108.0,3059290.0,
2475.0,4052.0,2218.0,2105.0,3059293.0,
2477.0,4052.0,2199.0,2100.0,3059297.0,
2478.0,4051.0,2179.0,2095.0,3059301.0,
2473.0,4051.0,2161.0,2092.0,3059305.0,
2473.0,4051.0,2144.0,2085.0,3059309.0,
2473.0,4052.0,2128.0,2081.0,3059313.0,
2477.0,4052.0,2110.0,2077.0,3059317.0,
2477.0,4052.0,2090.0,2075.0,3059321.0,
2474.0,4051.0,2075.0,2070.0,3059324.0,
2472.0,4052.0,2056.0,2069.0,3059328.0,
2475.0,4051.0,2042.0,2065.0,3059332.0,
2476.0,4051.0,2025.0,2063.0,3059336.0,
2477.0,4050.0,2009.0,2061.0,3059340.0,
2473.0,4053.0,1990.0,2059.0,3059344.0,
2472.0,4052.0,1975.0,2056.0,3059348.0,
2473.0,4051.0,1960.0,2055.0,3059352.0,
2476.0,4052.0,1944.0,2054.0,3059356.0,
2478.0,4050.0,1926.0,2051.0,3059360.0,
2474.0,4052.0,1910.0,2052.0,3059364.0,
2472.0,4051.0,1894.0,2051.0,3059367.0,
2473.0,4049.0,1880.0,2048.0,3059371.0,
2476.0,4051.0,1869.0,2051.0,3059375.0,
2478.0,4052.0,1858.0,2049.0,3059379.0,
2476.0,4052.0,1848.0,2050.0,3059383.0,
2471.0,4052.0,1835.0,2051.0,3059387.0,
2472.0,4051.0,1827.0,2046.0,3059391.0,
2476.0,4050.0,1820.0,2049.0,3059394.0,
2479.0,4053.0,1810.0,2047.0,3059398.0,
2475.0,4049.0,1806.0,2048.0,3059402.0,
2473.0,4052.0,1798.0,2047.0,3059406.0,
2472.0,4052.0,1793.0,2049.0,3059410.0,
2475.0,4050.0,1790.0,2047.0,3059414.0,
2478.0,4051.0,1787.0,2048.0,3059417.0,
2477.0,4052.0,1786.0,2046.0,3059421.0,
2474.0,4051.0,1788.0,2045.0,3059425.0,
2473.0,4050.0,1792.0,2045.0,3059429.0,
2474.0,4051.0,1796.0,2045.0,3059433.0,
2477.0,4050.0,1801.0,2043.0,3059437.0,
2477.0,4051.0,1809.0,2043.0,3059440.0,
2472.0,4051.0,1816.0,2041.0,3059445.0,
2471.0,4051.0,1821.0,2042.0,3059448.0,
2473.0,4050.0,1828.0,2044.0,3059452.0,
2476.0,4051.0,1835.0,2041.0,3059456.0,
2476.0,4052.0,1844.0,2040.0,3059460.0,
2474.0,4052.0,1851.0,2039.0,3059464.0,
2471.0,4052.0,1854.0,2040.0,3059467.0,
2472.0,4051.0,1863.0,2037.0,3059471.0,
2477.0,4051.0,1869.0,2034.0,3059475.0,
2477.0,4051.0,1873.0,2037.0,3059479.0,
2475.0,4050.0,1877.0,2036.0,3059483.0,
2473.0,4051.0,1879.0,2033.0,3059487.0,
2472.0,4049.0,1881.0,2033.0,3059490.0,
2476.0,4051.0,1884.0,2030.0,3059494.0,
2477.0,4052.0,1882.0,2032.0,3059498.0,
2481.0,4052.0,1885.0,2030.0,3059502.0,
2473.0,4050.0,1886.0,2027.0,3059506.0,
2472.0,4052.0,1887.0,2023.0,3059510.0,
2476.0,4051.0,1886.0,2024.0,3059514.0,
2478.0,4051.0,1882.0,2022.0,3059517.0,
2477.0,4054.0,1881.0,2023.0,3059521.0,
2475.0,4050.0,1884.0,2020.0,3059525.0,
2472.0,4051.0,1879.0,2020.0,3059529.0,
2475.0,4051.0,1880.0,2019.0,3059533.0,
2478.0,4051.0,1877.0,2019.0,3059537.0,
