EDA,Resp,PPG Finger,PPG Ear,arduino_ts,event_code
2488.0,4052.0,2008.0,2017.0,3402597.0,
2485.0,4049.0,2007.0,2014.0,3402601.0,
2483.0,4053.0,2001.0,2015.0,3402605.0,
2488.0,4051.0,2000.0,2014.0,3402609.0,
2489.0,4052.0,1993.0,2015.0,3402613.0,
2488.0,4052.0,1994.0,2017.0,3402617.0,
2486.0,4053.0,1989.0,2014.0,3402621.0,
2484.0,4050.0,1989.0,2013.0,3402625.0,
2485.0,4054.0,1983.0,2014.0,3402629.0,
2491.0,4051.0,1984.0,2017.0,3402633.0,
2488.0,4053.0,1981.0,2015.0,3402638.0,
2483.0,4052.0,1980.0,2015.0,3402641.0,
2484.0,4050.0,1976.0,2015.0,3402645.0,
2486.0,4052.0,1972.0,2016.0,3402650.0,
2489.0,4051.0,1971.0,2015.0,3402654.0,
2486.0,4053.0,1971.0,2017.0,3402659.0,
2484.0,4050.0,1969.0,2012.0,3402663.0,
2484.0,4053.0,1971.0,2014.0,3402667.0,
2487.0,4051.0,1972.0,2011.0,3402670.0,
2489.0,4051.0,1973.0,2013.0,3402674.0,
2487.0,4052.0,1976.0,2012.0,3402678.0,
2484.0,4051.0,1976.0,2010.0,3402682.0,
2484.0,4053.0,1977.0,2012.0,3402686.0,
2486.0,4050.0,1982.0,2010.0,3402690.0,
2489.0,4052.0,1979.0,2011.0,3402693.0,
2488.0,4051.0,1982.0,2007.0,3402697.0,
2485.0,4050.0,1981.0,2007.0,3402701.0,
2483.0,4051.0,1983.0,2005.0,3402705.0,
2486.0,4052.0,1981.0,2008.0,3402709.0,
2490.0,4051.0,1981.0,2005.0,3402713.0,
2488.0,4053.0,1985.0,2005.0,3402717.0,
2486.0,4052.0,1988.0,2004.0,3402721.0,
2484.0,4051.0,1986.0,2005.0,3402725.0,
2485.0,4052.0,1987.0,2003.0,3402728.0,
2489.0,4050.0,1985.0,2003.0,3402732.0,
2489.0,4053.0,1983.0,2005.0,3402736.0,
2486.0,4051.0,1983.0,2003.0,3402740.0,
2483.0,4053.0,1978.0,2004.0,3402744.0,
2485.0,4051.0,1978.0,2003.0,3402748.0,
2489.0,4052.0,1975.0,2004.0,3402751.0,
2489.0,4052.0,1973.0,2004.0,3402755.0,
2487.0,4052.0,1973.0,2004.0,3402759.0,
2484.0,4051.0,1973.0,2000.0,3402763.0,
2485.0,4051.0,1971.0,2003.0,3402767.0,
2487.0,4052.0,1972.0,2003.0,3402771.0,
2489.0,4053.0,1971.0,2004.0,3402774.0,
2487.0,4053.0,1970.0,2004.0,3402778.0,
2483.0,4052.0,1972.0,2003.0,3402782.0,
2484.0,4053.0,1971.0,2004.0,3402786.0,
2487.0,4050.0,1977.0,2004.0,3402790.0,
2489.0,4053.0,1975.0,2004.0,3402794.0,
2486.0,4053.0,1979.0,2002.0,3402798.0,
2484.0,4050.0,1980.0,2004.0,3402802.0,
2486.0,4050.0,1983.0,2002.0,3402806.0,
2490.0,4051.0,1982.0,2003.0,3402811.0,
2489.0,4053.0,1987.0,2007.0,3402816.0,
2485.0,4052.0,1992.0,2003.0,3402819.0,
2485.0,4050.0,1991.0,2007.0,3402823.0,
2483.0,4051.0,1996.0,2009.0,3402827.0,
2489.0,4053.0,1996.0,2008.0,3402831.0,
2489.0,4051.0,1998.0,2012.0,3402835.0,
2486.0,4051.0,1995.0,2016.0,3402839.0,
2483.0,4049.0,1994.0,2017.0,3402843.0,
2485.0,4051.0,1996.0,2020.0,3402847.0,
2488.0,4051.0,1994.0,2024.0,3402851.0,
2490.0,4052.0,1994.0,2029.0,3402856.0,
2486.0,4053.0,1987.0,2034.0,3402860.0,
2484.0,4049.0,1982.0,2041.0,3402865.0,
2487.0,4051.0,1982.0,2047.0,3402869.0,
2490.0,4053.0,1981.0,2052.0,3402874.0,
2487.0,4053.0,1978.0,2058.0,3402878.0,
2483.0,4051.0,1979.0,2063.0,3402882.0,
2484.0,4052.0,1985.0,2066.0,3402886.0,
2487.0,4052.0,1988.0,2074.0,3402890.0,
2489.0,4051.0,1998.0,2075.0,3402894.0,
2487.0,4052.0,2005.0,2084.0,3402898.0,
2483.0,4051.0,2018.0,2088.0,3402901.0,
2484.0,4051.0,2031.0,2093.0,3402905.0,
2487.0,4052.0,2046.0,2096.0,3402909.0,
2488.0,4052.0,2061.0,2105.0,3402913.0,
2488.0,4051.0,2086.0,2105.0,3402917.0,
2485.0,4051.0,2112.0,2112.0,3402921.0,
2485.0,4050.0,2136.0,2113.0,3402925.0,
2486.0,4052.0,2165.0,2117.0,3402928.0,
2488.0,4054.0,2192.0,2120.0,3402932.0,
2488.0,4051.0,2225.0,2120.0,3402936.0,
2485.0,4051.0,2255.0,2123.0,3402940.0,
2483.0,4052.0,2284.0,2125.0,3402944.0,
2486.0,4052.0,2313.0,2128.0,3402948.0,
2489.0,4051.0,2344.0,2127.0,3402952.0,
2490.0,4052.0,2373.0,2131.0,3402955.0,
2486.0,4051.0,2405.0,2130.0,3402959.0,
2484.0,4053.0,2428.0,2132.0,3402963.0,
2484.0,4051.0,2460.0,2131.0,3402967.0,
2488.0,4053.0,2484.0,2131.0,3402971.0,
2490.0,4051.0,2511.0,2130.0,3402975.0,
2487.0,4052.0,2531.0,2131.0,3402979.0,
2484.0,4050.0,2548.0,2129.0,3402983.0,
2484.0,4053.0,2565.0,2130.0,3402986.0,
2489.0,4051.0,2579.0,2129.0,3402991.0,
2490.0,4052.0,2590.0,2132.0,3402995.0,
2487.0,4051.0,2597.0,2128.0,3402999.0,
2484.0,4052.0,2602.0,2127.0,3403002.0,
2485.0,4050.0,2600.0,2128.0,3403006.0,
2488.0,4051.0,2596.0,2125.0,3403010.0,
2489.0,4053.0,2590.0,2126.0,3403014.0,
2487.0,4051.0,2581.0,2125.0,3403018.0,
2484.0,4053.0,2568.0,2123.0,3403022.0,
2484.0,4052.0,2552.0,2122.0,3403026.0,
2489.0,4053.0,2540.0,2124.0,3403030.0,
2489.0,4051.0,2524.0,2119.0,3403034.0,
2487.0,4051.0,2507.0,2121.0,3403038.0,
2484.0,4050.0,2489.0,2118.0,3403042.0,
2483.0,4052.0,2470.0,2115.0,3403046.0,
2488.0,4051.0,2449.0,2113.0,3403050.0,
2489.0,4053.0,2429.0,2112.0,3403054.0,
2487.0,4052.0,2409.0,2110.0,3403058.0,
2484.0,4052.0,2385.0,2107.0,3403062.0,
2485.0,4051.0,2369.0,2104.0,3403066.0,
2487.0,4052.0,2350.0,2103.0,3403070.0,
2489.0,4052.0,2330.0,2100.0,3403073.0,
2487.0,4052.0,2310.0,2098.0,3403077.0,
2485.0,4052.0,2289.0,2092.0,3403081.0,
2484.0,4053.0,2270.0,2090.0,3403085.0,
2488.0,4051.0,2252.0,2087.0,3403089.0,
2490.0,4051.0,2234.0,2084.0,3403093.0,
2488.0,4050.0,2218.0,2080.0,3403097.0,
2484.0,4054.0,2203.0,2079.0,3403100.0,
2483.0,4051.0,2191.0,2073.0,3403104.0,
2486.0,4052.0,2180.0,2074.0,3403108.0,
2489.0,4051.0,2169.0,2068.0,3403112.0,
2489.0,4052.0,2159.0,2067.0,3403116.0,
2485.0,4052.0,2146.0,2068.0,3403120.0,
2483.0,4052.0,2136.0,2064.0,3403124.0,
2485.0,4054.0,2134.0,2065.0,3403128.0,
2490.0,4052.0,2125.0,2060.0,3403132.0,
2488.0,4053.0,2118.0,2059.0,3403135.0,
2486.0,4051.0,2108.0,2059.0,3403139.0,
2483.0,4051.0,2103.0,2057.0,3403143.0,
2486.0,4052.0,2094.0,2057.0,3403147.0,
2488.0,4051.0,2090.0,2054.0,3403151.0,
2489.0,4052.0,2082.0,2055.0,3403155.0,
2486.0,4051.0,2078.0,2054.0,3403159.0,
2483.0,4052.0,2074.0,2057.0,3403163.0,
2486.0,4050.0,2066.0,2056.0,3403167.0,
2488.0,4053.0,2063.0,2056.0,3403171.0,
2489.0,4051.0,2060.0,2056.0,3403174.0,
2486.0,4051.0,2057.0,2054.0,3403178.0,
2484.0,4054.0,2053.0,2056.0,3403182.0,
2485.0,4053.0,2051.0,2057.0,3403186.0,
2488.0,4051.0,2051.0,2060.0,3403190.0,
2489.0,4052.0,2051.0,2059.0,3403194.0,
2489.0,4052.0,2053.0,2057.0,3403198.0,
2484.0,4053.0,2058.0,2056.0,3403202.0,
2485.0,4051.0,2061.0,2057.0,3403206.0,
2488.0,4052.0,2067.0,2058.0,3403209.0,
2489.0,4050.0,2073.0,2055.0,3403213.0,
2487.0,4051.0,2078.0,2055.0,3403217.0,
2484.0,4052.0,2085.0,2054.0,3403221.0,
2484.0,4052.0,2089.0,2053.0,3403225.0,
2488.0,4051.0,2093.0,2051.0,3403229.0,
2490.0,4052.0,2096.0,2052.0,3403233.0,
2487.0,4051.0,2102.0,2051.0,3403236.0,
2482.0,4051.0,2102.0,2050.0,3403240.0,
2484.0,4052.0,2105.0,2048.0,3403244.0,
2486.0,4052.0,2110.0,2047.0,3403248.0,
2489.0,4052.0,2113.0,2048.0,3403252.0,
2488.0,4051.0,2117.0,2047.0,3403256.0,
2486.0,4053.0,2123.0,2048.0,3403260.0,
2483.0,4051.0,2128.0,2043.0,3403264.0,
2486.0,4052.0,2135.0,2043.0,3403268.0,
2490.0,4051.0,2139.0,2043.0,3403271.0,
2488.0,4051.0,2145.0,2042.0,3403275.0,
2485.0,4050.0,2149.0,2042.0,3403279.0,
2482.0,4052.0,2149.0,2041.0,3403283.0,
2485.0,4050.0,2149.0,2040.0,3403287.0,
2488.0,4052.0,2152.0,2041.0,3403290.0,
2489.0,4054.0,2148.0,2038.0,3403294.0,
2486.0,4051.0,2149.0,2037.0,3403298.0,
2484.0,4055.0,2148.0,2037.0,3403302.0,
2485.0,4051.0,2141.0,2037.0,3403306.0,
2487.0,4053.0,2141.0,2037.0,3403310.0,
2490.0,4051.0,2136.0,2035.0,3403313.0,
2487.0,4052.0,2130.0,2034.0,3403318.0,
2482.0,4052.0,2129.0,2035.0,3403321.0,
2484.0,4050.0,2123.0,2033.0,3403325.0,
2488.0,4053.0,2116.0,2034.0,3403329.0,
2490.0,4052.0,2110.0,2032.0,3403333.0,
2487.0,4052.0,2104.0,2034.0,3403337.0,
2484.0,4051.0,2105.0,2033.0,3403341.0,
2484.0,4051.0,2105.0,2032.0,3403344.0,
2487.0,4051.0,2101.0,2031.0,3403348.0,
2489.0,4052.0,2099.0,2031.0,3403352.0,
2487.0,4052.0,2097.0,2032.0,3403356.0,
2483.0,4052.0,2093.0,2031.0,3403360.0,
2484.0,4050.0,2094.0,2029.0,3403364.0,
2488.0,4052.0,2091.0,2030.0,3403368.0,
2489.0,4052.0,2086.0,2029.0,3403372.0,
2488.0,4050.0,2082.0,2028.0,3403376.0,
2487.0,4050.0,2077.0,2025.0,3403380.0,
2484.0,4052.0,2074.0,2026.0,3403384.0,
2486.0,4054.0,2069.0,2026.0,3403388.0,
2489.0,4052.0,2063.0,2024.0,3403392.0,
2489.0,4052.0,2058.0,2022.0,3403396.0,
2484.0,4053.0,2053.0,2021.0,3403400.0,
2483.0,4052.0,2048.0,2017.0,3403404.0,
2486.0,4052.0,2043.0,2016.0,3403408.0,
2489.0,4052.0,2041.0,2017.0,3403412.0,
2488.0,4052.0,2034.0,2014.0,3403416.0,
2484.0,4051.0,2028.0,2012.0,3403420.0,
2483.0,4051.0,2019.0,2012.0,3403423.0,
2486.0,4050.0,2012.0,2011.0,3403427.0,
2488.0,4050.0,2007.0,2007.0,3403431.0,
2488.0,4052.0,2003.0,2006.0,3403435.0,
2486.0,4050.0,1997.0,2005.0,3403439.0,
2484.0,4051.0,1996.0,2005.0,3403443.0,
2487.0,4051.0,1994.0,2006.0,3403447.0,
2489.0,4051.0,1996.0,2003.0,3403451.0,
2485.0,4052.0,1997.0,2005.0,3403455.0,
2485.0,4050.0,1997.0,2002.0,3403459.0,
2482.0,4052.0,1998.0,2005.0,3403463.0,
2484.0,4051.0,1998.0,2006.0,3403466.0,
2488.0,4048.0,1999.0,2005.0,3403470.0,
2489.0,4052.0,1996.0,2007.0,3403474.0,
2484.0,4053.0,1998.0,2005.0,3403478.0,
2482.0,4053.0,1999.0,2006.0,3403482.0,
2483.0,4050.0,1997.0,2005.0,3403486.0,
2485.0,4051.0,1997.0,2005.0,3403490.0,
2487.0,4052.0,1991.0,2005.0,3403494.0,
2484.0,4053.0,1992.0,2007.0,3403498.0,
2482.0,4052.0,1990.0,2007.0,3403502.0,
2484.0,4050.0,1991.0,2006.0,3403506.0,
2489.0,4050.0,1992.0,2005.0,3403510.0,
2487.0,4050.0,1994.0,2005.0,3403515.0,
2484.0,4050.0,1994.0,2007.0,3403519.0,
2483.0,4051.0,1996.0,2008.0,3403523.0,
2485.0,4051.0,1996.0,2007.0,3403527.0,
2488.0,4052.0,2002.0,2009.0,3403531.0,
2487.0,4051.0,2002.0,2007.0,3403535.0,
2484.0,4052.0,2002.0,2011.0,3403539.0,
2482.0,4051.0,2004.0,2007.0,3403543.0,
2484.0,4053.0,2000.0,2011.0,3403547.0,
2488.0,4052.0,1998.0,2008.0,3403551.0,
2488.0,4051.0,1997.0,2006.0,3403554.0,
2484.0,4052.0,1996.0,2009.0,3403558.0,
2482.0,4052.0,1998.0,2008.0,3403562.0,
2485.0,4051.0,1997.0,2009.0,3403566.0,
2488.0,4052.0,1996.0,2009.0,3403570.0,
2488.0,4051.0,1999.0,2006.0,3403574.0,
2486.0,4052.0,2000.0,2007.0,3403577.0,
2482.0,4052.0,2002.0,2008.0,3403581.0,
2485.0,4051.0,2001.0,2009.0,3403585.0,
2487.0,4051.0,2002.0,2007.0,3403589.0,
2488.0,4053.0,2000.0,2008.0,3403593.0,
2486.0,4051.0,2006.0,2005.0,3403596.0,
2483.0,4050.0,2009.0,2006.0,3403600.0,
2485.0,4053.0,2007.0,2005.0,3403604.0,
2486.0,4051.0,2011.0,2006.0,3403608.0,
2490.0,4052.0,2012.0,2006.0,3403612.0,
2486.0,4051.0,2015.0,2005.0,3403617.0,
2483.0,4052.0,2018.0,2006.0,3403621.0,
2484.0,4051.0,2019.0,2007.0,3403625.0,
2488.0,4052.0,2021.0,2008.0,3403629.0,
2488.0,4052.0,2020.0,2007.0,3403633.0,
2486.0,4051.0,2017.0,2009.0,3403638.0,
2482.0,4052.0,2015.0,2008.0,3403642.0,
2484.0,4052.0,2011.0,2012.0,3403646.0,
2487.0,4052.0,2007.0,2009.0,3403650.0,
2488.0,4051.0,2001.0,2011.0,3403653.0,
2486.0,4052.0,1998.0,2016.0,3403657.0,
2482.0,4054.0,1993.0,2016.0,3403661.0,
2483.0,4051.0,1987.0,2020.0,3403665.0,
2487.0,4053.0,1984.0,2024.0,3403669.0,
2488.0,4052.0,1980.0,2027.0,3403673.0,
2486.0,4052.0,1977.0,2034.0,3403677.0,
2482.0,4053.0,1975.0,2033.0,3403681.0,
2484.0,4053.0,1971.0,2039.0,3403685.0,
2487.0,4051.0,1972.0,2043.0,3403689.0,
2488.0,4053.0,1970.0,2048.0,3403692.0,
2485.0,4051.0,1973.0,2052.0,3403696.0,
2482.0,4051.0,1978.0,2056.0,3403700.0,
2483.0,4052.0,1981.0,2061.0,3403704.0,
2487.0,4051.0,1994.0,2067.0,3403708.0,
2489.0,4053.0,1999.0,2072.0,3403712.0,
2487.0,4051.0,2011.0,2075.0,3403717.0,
2484.0,4052.0,2024.0,2079.0,3403721.0,
2485.0,4051.0,2036.0,2087.0,3403725.0,
2487.0,4051.0,2051.0,2092.0,3403729.0,
2489.0,4053.0,2069.0,2095.0,3403733.0,
2486.0,4050.0,2091.0,2099.0,3403737.0,
2484.0,4051.0,2116.0,2105.0,3403741.0,
2489.0,4053.0,2144.0,2107.0,3403745.0,
2489.0,4051.0,2174.0,2108.0,3403749.0,
2489.0,4051.0,2205.0,2117.0,3403754.0,
2485.0,4052.0,2243.0,2119.0,3403758.0,
2482.0,4053.0,2278.0,2120.0,3403762.0,
2486.0,4051.0,2320.0,2123.0,3403767.0,
2490.0,4053.0,2355.0,2125.0,3403771.0,
2487.0,4051.0,2389.0,2128.0,3403775.0,
2484.0,4051.0,2427.0,2126.0,3403780.0,
2484.0,4049.0,2462.0,2127.0,3403784.0,
2487.0,4052.0,2491.0,2131.0,3403788.0,
2490.0,4052.0,2521.0,2128.0,3403792.0,
2485.0,4050.0,2552.0,2131.0,3403797.0,
2485.0,4050.0,2569.0,2131.0,3403801.0,
2484.0,4051.0,2587.0,2129.0,3403805.0,
2488.0,4052.0,2600.0,2132.0,3403808.0,
2490.0,4051.0,2613.0,2129.0,3403812.0,
2488.0,4051.0,2624.0,2130.0,3403816.0,
2484.0,4052.0,2628.0,2127.0,3403820.0,
2485.0,4053.0,2631.0,2127.0,3403824.0,
2488.0,4052.0,2637.0,2127.0,3403828.0,
2490.0,4052.0,2633.0,2125.0,3403832.0,
2488.0,4051.0,2627.0,2123.0,3403836.0,
2484.0,4052.0,2622.0,2123.0,3403840.0,
2485.0,4050.0,2615.0,2118.0,3403843.0,
2486.0,4051.0,2605.0,2119.0,3403847.0,
2490.0,4051.0,2591.0,2115.0,3403851.0,
2489.0,4051.0,2579.0,2112.0,3403855.0,
2485.0,4051.0,2560.0,2110.0,3403860.0,
2484.0,4053.0,2545.0,2107.0,3403863.0,
2487.0,4052.0,2527.0,2101.0,3403867.0,
2490.0,4051.0,2511.0,2102.0,3403871.0,
2487.0,4051.0,2494.0,2098.0,3403875.0,
2485.0,4053.0,2480.0,2097.0,3403879.0,
2484.0,4051.0,2462.0,2093.0,3403883.0,
2487.0,4053.0,2445.0,2090.0,3403887.0,
2490.0,4051.0,2427.0,2088.0,3403891.0,
2487.0,4053.0,2406.0,2083.0,3403895.0,
2484.0,4051.0,2387.0,2082.0,3403899.0,
2484.0,4053.0,2367.0,2080.0,3403903.0,
2487.0,4051.0,2347.0,2076.0,3403907.0,
2490.0,4051.0,2328.0,2077.0,3403911.0,
2489.0,4052.0,2308.0,2073.0,3403914.0,
2485.0,4053.0,2290.0,2072.0,3403918.0,
2484.0,4051.0,2271.0,2067.0,3403923.0,
2486.0,4052.0,2254.0,2066.0,3403927.0,
2490.0,4051.0,2234.0,2063.0,3403931.0,
2489.0,4082.0,2217.0,2060.0,3403934.0,
2483.0,4052.0,2201.0,2060.0,3403938.0,
2484.0,4053.0,2183.0,2057.0,3403942.0,
2486.0,4053.0,2167.0,2056.0,3403946.0,
2490.0,4050.0,2154.0,2053.0,3403950.0,
2488.0,4052.0,2140.0,2051.0,3403954.0,
2484.0,4050.0,2131.0,2050.0,3403958.0,
2483.0,4052.0,2119.0,2051.0,3403962.0,
2485.0,4052.0,2109.0,2047.0,3403966.0,
2489.0,4052.0,2101.0,2048.0,3403970.0,
2488.0,4051.0,2095.0,2048.0,3403974.0,
2485.0,4052.0,2087.0,2046.0,3403977.0,
2482.0,4052.0,2080.0,2049.0,3403981.0,
2485.0,4053.0,2070.0,2045.0,3403985.0,
2487.0,4051.0,2067.0,2044.0,3403989.0,
2488.0,4052.0,2062.0,2047.0,3403993.0,
2485.0,4051.0,2061.0,2047.0,3403997.0,
2482.0,4052.0,2057.0,2049.0,3404000.0,
2483.0,4051.0,2059.0,2049.0,3404004.0,
2486.0,4051.0,2056.0,2050.0,3404008.0,
2487.0,4050.0,2059.0,2048.0,3404012.0,
2485.0,4052.0,2063.0,2052.0,3404016.0,
2483.0,4050.0,2062.0,2048.0,3404020.0,
2483.0,4052.0,2064.0,2053.0,3404024.0,
2485.0,4052.0,2069.0,2049.0,3404027.0,
2488.0,4052.0,2071.0,2052.0,3404031.0,
2486.0,4052.0,2077.0,2052.0,3404035.0,
2482.0,4052.0,2080.0,2053.0,3404039.0,
2481.0,4052.0,2088.0,2052.0,3404043.0,
2483.0,4053.0,2095.0,2054.0,3404047.0,
2487.0,4053.0,2097.0,2051.0,3404051.0,
2486.0,4052.0,2099.0,2054.0,3404055.0,
2481.0,4050.0,2106.0,2051.0,3404059.0,
2481.0,4052.0,2111.0,2053.0,3404063.0,
2485.0,4051.0,2112.0,2050.0,3404067.0,
2486.0,4050.0,2118.0,2050.0,3404071.0,
2486.0,4052.0,2115.0,2052.0,3404075.0,
2481.0,4051.0,2124.0,2049.0,3404079.0,
2481.0,4052.0,2130.0,2047.0,3404083.0,
2485.0,4051.0,2138.0,2046.0,3404087.0,
2488.0,4051.0,2146.0,2045.0,3404091.0,
2485.0,4052.0,2150.0,2047.0,3404095.0,
2481.0,4051.0,2155.0,2043.0,3404099.0,
2481.0,4052.0,2157.0,2043.0,3404103.0,
2485.0,4050.0,2158.0,2040.0,3404107.0,
2487.0,4050.0,2161.0,2038.0,3404111.0,
2485.0,4051.0,2158.0,2037.0,3404115.0,
2483.0,4052.0,2156.0,2036.0,3404119.0,
2481.0,4051.0,2156.0,2035.0,3404123.0,
2485.0,4053.0,2154.0,2036.0,3404127.0,
2487.0,4051.0,2153.0,2030.0,3404130.0,
2486.0,4052.0,2151.0,2033.0,3404134.0,
2481.0,4053.0,2149.0,2033.0,3404138.0,
2481.0,4051.0,2145.0,2031.0,3404142.0,
2483.0,4052.0,2141.0,2029.0,3404146.0,
2486.0,4050.0,2139.0,2027.0,3404150.0,
2486.0,4052.0,2138.0,2027.0,3404154.0,
2484.0,4049.0,2136.0,2027.0,3404158.0,
2480.0,4052.0,2130.0,2026.0,3404161.0,
2483.0,4052.0,2128.0,2024.0,3404165.0,
2487.0,4052.0,2118.0,2025.0,3404169.0,
2486.0,4052.0,2110.0,2025.0,3404173.0,
2483.0,4052.0,2102.0,2022.0,3404177.0,
2480.0,4051.0,2095.0,2024.0,3404181.0,
2482.0,4051.0,2088.0,2022.0,3404185.0,
2486.0,4054.0,2078.0,2021.0,3404189.0,
2485.0,4051.0,2071.0,2020.0,3404193.0,
2484.0,4052.0,2065.0,2022.0,3404197.0,
2481.0,4050.0,2056.0,2018.0,3404201.0,
2483.0,4052.0,2046.0,2016.0,3404205.0,
2487.0,4050.0,2037.0,2017.0,3404209.0,
2487.0,4052.0,2029.0,2017.0,3404212.0,
2483.0,4052.0,2023.0,2013.0,3404216.0,
2481.0,4051.0,2016.0,2014.0,3404220.0,
2481.0,4051.0,2011.0,2012.0,3404224.0,
2487.0,4053.0,2011.0,2015.0,3404228.0,
2487.0,4051.0,2009.0,2010.0,3404232.0,
2485.0,4051.0,2003.0,2012.0,3404236.0,
2480.0,4052.0,2001.0,2014.0,3404240.0,
2482.0,4050.0,2001.0,2011.0,3404244.0,
2486.0,4052.0,1999.0,2010.0,3404248.0,
2486.0,4051.0,1996.0,2008.0,3404251.0,
2485.0,4053.0,1994.0,2010.0,3404255.0,
2482.0,4051.0,1992.0,2008.0,3404259.0,
2481.0,4051.0,1991.0,2008.0,3404263.0,
2485.0,4050.0,1988.0,2008.0,3404267.0,
2489.0,4050.0,1986.0,2007.0,3404271.0,
2484.0,4053.0,1985.0,2008.0,3404275.0,
2483.0,4050.0,1985.0,2007.0,3404279.0,
2482.0,4053.0,1985.0,2009.0,3404283.0,
2486.0,4051.0,1986.0,2006.0,3404286.0,
2487.0,4053.0,1989.0,2008.0,3404290.0,
2486.0,4051.0,1987.0,2007.0,3404294.0,
2483.0,4050.0,1988.0,2006.0,3404298.0,
2482.0,4052.0,1984.0,2009.0,3404302.0,
2485.0,4050.0,1983.0,2009.0,3404306.0,
2489.0,4051.0,1984.0,2006.0,3404310.0,
2487.0,4049.0,1979.0,2009.0,3404314.0,
2482.0,4053.0,1976.0,2008.0,3404318.0,
2482.0,4051.0,1978.0,2012.0,3404322.0,
2486.0,4051.0,1974.0,2009.0,3404326.0,
2490.0,4052.0,1974.0,2009.0,3404330.0,
2486.0,4051.0,1976.0,2008.0,3404334.0,
2484.0,4052.0,1980.0,2010.0,3404338.0,
2483.0,4050.0,1982.0,2008.0,3404342.0,
2486.0,4052.0,1982.0,2008.0,3404346.0,
2488.0,4051.0,1985.0,2004.0,3404350.0,
2487.0,4053.0,1987.0,2006.0,3404354.0,
2483.0,4051.0,1990.0,2003.0,3404357.0,
2483.0,4051.0,1996.0,2004.0,3404361.0,
2485.0,4053.0,1995.0,2005.0,3404365.0,
2488.0,4053.0,1996.0,2004.0,3404369.0,
2489.0,4052.0,1994.0,2001.0,3404373.0,
2484.0,4052.0,1998.0,1999.0,3404377.0,
2483.0,4052.0,1995.0,2003.0,3404381.0,
2484.0,4049.0,1993.0,1999.0,3404385.0,
2489.0,4052.0,1991.0,2001.0,3404389.0,
2488.0,4052.0,1990.0,2001.0,3404392.0,
2484.0,4052.0,1984.0,2002.0,3404396.0,
2483.0,4052.0,1982.0,2002.0,3404400.0,
2484.0,4051.0,1979.0,2001.0,3404404.0,
2489.0,4053.0,1972.0,2006.0,3404408.0,
2488.0,4053.0,1967.0,2006.0,3404412.0,
2485.0,4051.0,1960.0,2007.0,3404416.0,
2481.0,4051.0,1954.0,2009.0,3404419.0,
2484.0,4052.0,1952.0,2014.0,3404423.0,
2488.0,4052.0,1946.0,2014.0,3404427.0,
2489.0,4051.0,1944.0,2018.0,3404431.0,
2487.0,4051.0,1939.0,2017.0,3404435.0,
2484.0,4052.0,1932.0,2025.0,3404439.0,
2485.0,4052.0,1928.0,2027.0,3404442.0,
2487.0,4051.0,1927.0,2028.0,3404446.0,
2489.0,4050.0,1921.0,2034.0,3404450.0,
2488.0,4051.0,1921.0,2039.0,3404454.0,
2484.0,4050.0,1919.0,2043.0,3404458.0,
2484.0,4053.0,1920.0,2049.0,3404462.0,
2486.0,4051.0,1926.0,2052.0,3404466.0,
2489.0,4053.0,1930.0,2059.0,3404470.0,
2487.0,4051.0,1939.0,2061.0,3404474.0,
2484.0,4052.0,1947.0,2069.0,3404478.0,
2483.0,4051.0,1961.0,2072.0,3404482.0,
2487.0,4052.0,1974.0,2078.0,3404486.0,
2489.0,4052.0,1986.0,2081.0,3404490.0,
2488.0,4052.0,2007.0,2087.0,3404494.0,
2485.0,4051.0,2028.0,2089.0,3404498.0,
2484.0,4052.0,2049.0,2094.0,3404502.0,
2487.0,4053.0,2072.0,2094.0,3404505.0,
2490.0,4052.0,2101.0,2099.0,3404509.0,
2488.0,4052.0,2129.0,2100.0,3404514.0,
2484.0,4051.0,2160.0,2102.0,3404518.0,
2483.0,4052.0,2185.0,2105.0,3404522.0,
2487.0,4051.0,2216.0,2107.0,3404526.0,
2488.0,4051.0,2246.0,2110.0,3404530.0,
2487.0,4052.0,2275.0,2109.0,3404534.0,
2484.0,4051.0,2301.0,2110.0,3404538.0,
2484.0,4051.0,2340.0,2111.0,3404543.0,
2487.0,4053.0,2370.0,2112.0,3404547.0,
2487.0,4054.0,2402.0,2110.0,3404552.0,
2485.0,4051.0,2430.0,2111.0,3404556.0,
2484.0,4053.0,2453.0,2111.0,3404560.0,
2485.0,4054.0,2471.0,2109.0,3404564.0,
2487.0,4050.0,2491.0,2111.0,3404568.0,
2489.0,4053.0,2509.0,2110.0,3404572.0,
2486.0,4050.0,2531.0,2106.0,3404576.0,
2482.0,4052.0,2544.0,2107.0,3404580.0,
2484.0,4050.0,2555.0,2104.0,3404584.0,
2488.0,4053.0,2565.0,2104.0,3404588.0,
2489.0,4051.0,2571.0,2102.0,3404591.0,
2487.0,4051.0,2576.0,2100.0,3404595.0,
2484.0,4051.0,2574.0,2097.0,3404599.0,
2485.0,4050.0,2568.0,2098.0,3404603.0,
2488.0,4052.0,2560.0,2096.0,3404607.0,
2489.0,4051.0,2549.0,2091.0,3404611.0,
2485.0,4052.0,2535.0,2089.0,3404615.0,
2484.0,4051.0,2517.0,2086.0,3404620.0,
2485.0,4051.0,2498.0,2084.0,3404624.0,
2489.0,4052.0,2481.0,2084.0,3404628.0,
2489.0,4052.0,2461.0,2082.0,3404632.0,
2485.0,4051.0,2437.0,2076.0,3404637.0,
2486.0,4051.0,2414.0,2073.0,3404641.0,
2487.0,4053.0,2388.0,2074.0,3404645.0,
2490.0,4052.0,2364.0,2070.0,3404649.0,
2489.0,4051.0,2337.0,2068.0,3404654.0,
2485.0,4053.0,2314.0,2065.0,3404658.0,
2483.0,4051.0,2289.0,2063.0,3404662.0,
2488.0,4053.0,2266.0,2061.0,3404665.0,
2490.0,4054.0,2245.0,2060.0,3404669.0,
2489.0,4052.0,2227.0,2059.0,3404673.0,
2484.0,4051.0,2205.0,2052.0,3404677.0,
2484.0,4053.0,2186.0,2052.0,3404681.0,
2486.0,4050.0,2168.0,2049.0,3404685.0,
2490.0,4054.0,2148.0,2049.0,3404689.0,
2485.0,4052.0,2131.0,2048.0,3404693.0,
2486.0,4053.0,2110.0,2049.0,3404696.0,
2485.0,4052.0,2096.0,2050.0,3404700.0,
2486.0,4052.0,2081.0,2049.0,3404704.0,
2490.0,4053.0,2065.0,2049.0,3404708.0,
2489.0,4052.0,2051.0,2046.0,3404712.0,
2486.0,4052.0,2038.0,2046.0,3404715.0,
2484.0,4053.0,2025.0,2046.0,3404719.0,
2486.0,4052.0,2014.0,2047.0,3404723.0,
2489.0,4052.0,2002.0,2045.0,3404727.0,
2489.0,4051.0,1994.0,2046.0,3404732.0,
2486.0,4051.0,1986.0,2044.0,3404735.0,
2483.0,4051.0,1977.0,2042.0,3404739.0,
2486.0,4051.0,1969.0,2043.0,3404744.0,
2491.0,4051.0,1966.0,2047.0,3404748.0,
2489.0,4051.0,1963.0,2043.0,3404752.0,
2486.0,4052.0,1959.0,2043.0,3404755.0,
2483.0,4053.0,1960.0,2041.0,3404759.0,
2486.0,4052.0,1957.0,2040.0,3404763.0,
2489.0,4053.0,1958.0,2041.0,3404767.0,
2489.0,4052.0,1965.0,2038.0,3404771.0,
2488.0,4051.0,1973.0,2041.0,3404775.0,
2483.0,4051.0,1983.0,2038.0,3404779.0,
2485.0,4054.0,1989.0,2037.0,3404783.0,
2488.0,4050.0,1997.0,2038.0,3404787.0,
2490.0,4051.0,2006.0,2040.0,3404791.0,
2487.0,4051.0,2015.0,2036.0,3404795.0,
2484.0,4049.0,2023.0,2037.0,3404798.0,
2485.0,4052.0,2030.0,2036.0,3404802.0,
2487.0,4051.0,2038.0,2035.0,3404806.0,
2490.0,4052.0,2046.0,2038.0,3404810.0,
2487.0,4051.0,2047.0,2037.0,3404814.0,
2485.0,4052.0,2051.0,2037.0,3404817.0,
2484.0,4052.0,2057.0,2036.0,3404821.0,
2487.0,4052.0,2059.0,2036.0,3404825.0,
2489.0,4053.0,2062.0,2036.0,3404829.0,
2489.0,4052.0,2065.0,2036.0,3404833.0,
2486.0,4052.0,2071.0,2037.0,3404837.0,
2483.0,4051.0,2075.0,2038.0,3404841.0,
2487.0,4051.0,2078.0,2036.0,3404844.0,
2491.0,4052.0,2085.0,2039.0,3404849.0,
2488.0,4051.0,2088.0,2036.0,3404853.0,
2484.0,4051.0,2091.0,2038.0,3404857.0,
2484.0,4051.0,2095.0,2035.0,3404861.0,
2486.0,4051.0,2096.0,2037.0,3404865.0,
2489.0,4051.0,2100.0,2035.0,3404869.0,
2487.0,4052.0,2101.0,2033.0,3404873.0,
2484.0,4053.0,2098.0,2035.0,3404877.0,
2484.0,4050.0,2098.0,2034.0,3404881.0,
2487.0,4053.0,2099.0,2030.0,3404885.0,
2489.0,4052.0,2092.0,2030.0,3404888.0,
2487.0,4050.0,2092.0,2028.0,3404892.0,
2484.0,4053.0,2089.0,2027.0,3404896.0,
2484.0,4052.0,2079.0,2029.0,3404900.0,
2485.0,4050.0,2075.0,2026.0,3404904.0,
2489.0,4051.0,2071.0,2028.0,3404908.0,
2488.0,4053.0,2060.0,2022.0,3404912.0,
2484.0,4053.0,2053.0,2024.0,3404916.0,
2483.0,4051.0,2050.0,2021.0,3404920.0,
2486.0,4053.0,2041.0,2023.0,3404924.0,
2488.0,4052.0,2038.0,2023.0,3404928.0,
2488.0,4051.0,2026.0,2018.0,3404932.0,
2484.0,4053.0,2021.0,2020.0,3404936.0,
2483.0,4050.0,2011.0,2019.0,3404940.0,
2485.0,4051.0,2003.0,2019.0,3404944.0,
2488.0,4051.0,1996.0,2020.0,3404948.0,
2487.0,4053.0,1988.0,2020.0,3404952.0,
2483.0,4050.0,1985.0,2017.0,3404956.0,
2482.0,4052.0,1980.0,2020.0,3404959.0,
2483.0,4050.0,1975.0,2016.0,3404963.0,
2486.0,4052.0,1972.0,2015.0,3404967.0,
2487.0,4052.0,1967.0,2016.0,3404971.0,
2484.0,4052.0,1966.0,2014.0,3404975.0,
2482.0,4051.0,1961.0,2011.0,3404979.0,
2484.0,4052.0,1958.0,2013.0,3404983.0,
2486.0,4051.0,1956.0,2011.0,3404987.0,
2487.0,4053.0,1950.0,2009.0,3404991.0,
2485.0,4050.0,1944.0,2007.0,3404994.0,
2482.0,4052.0,1940.0,2010.0,3404999.0,
2483.0,4052.0,1935.0,2004.0,3405002.0,
2487.0,4052.0,1933.0,2005.0,3405006.0,
2487.0,4052.0,1926.0,2004.0,3405010.0,
2485.0,4051.0,1923.0,2003.0,3405014.0,
2482.0,4053.0,1919.0,2005.0,3405018.0,
2483.0,4051.0,1920.0,2003.0,3405022.0,
2486.0,4052.0,1917.0,2006.0,3405026.0,
2487.0,4051.0,1917.0,2004.0,3405030.0,
2485.0,4053.0,1910.0,2003.0,3405034.0,
2485.0,4051.0,1908.0,2004.0,3405038.0,
2482.0,4053.0,1908.0,2002.0,3405042.0,
2487.0,4052.0,1902.0,2000.0,3405046.0,
2488.0,4053.0,1903.0,2002.0,3405050.0,
2485.0,4051.0,1904.0,2002.0,3405054.0,
2482.0,4052.0,1902.0,1999.0,3405058.0,
2484.0,4051.0,1906.0,2000.0,3405062.0,
2486.0,4053.0,1907.0,2000.0,3405066.0,
2488.0,4052.0,1911.0,2000.0,3405070.0,
2485.0,4051.0,1909.0,2001.0,3405074.0,
2483.0,4052.0,1911.0,2007.0,3405079.0,
2485.0,4051.0,1915.0,2004.0,3405083.0,
2488.0,4052.0,1913.0,2003.0,3405087.0,
2488.0,4051.0,1916.0,2002.0,3405091.0,
2484.0,4052.0,1915.0,2003.0,3405095.0,
2482.0,4051.0,1914.0,2003.0,3405099.0,
2485.0,4051.0,1913.0,2002.0,3405103.0,
2488.0,4051.0,1908.0,2001.0,3405107.0,
2488.0,4052.0,1908.0,2005.0,3405112.0,
2483.0,4050.0,1912.0,2001.0,3405117.0,
2483.0,4051.0,1905.0,2002.0,3405121.0,
2487.0,4053.0,1910.0,2003.0,3405126.0,
2489.0,4051.0,1908.0,2004.0,3405130.0,
2487.0,4053.0,1905.0,2004.0,3405134.0,
2483.0,4051.0,1907.0,2002.0,3405138.0,
2484.0,4052.0,1907.0,2005.0,3405142.0,
2488.0,4051.0,1908.0,2006.0,3405146.0,
2489.0,4052.0,1909.0,2009.0,3405149.0,
2487.0,4051.0,1905.0,2009.0,3405153.0,
2483.0,4051.0,1904.0,2012.0,3405157.0,
2484.0,4051.0,1903.0,2014.0,3405161.0,
2487.0,4052.0,1900.0,2017.0,3405165.0,
2490.0,4051.0,1898.0,2022.0,3405169.0,
2487.0,4052.0,1901.0,2027.0,3405173.0,
2483.0,4050.0,1904.0,2030.0,3405177.0,
2484.0,4053.0,1903.0,2033.0,3405181.0,
2487.0,4051.0,1907.0,2040.0,3405185.0,
2489.0,4052.0,1909.0,2049.0,3405189.0,
2487.0,4050.0,1914.0,2052.0,3405193.0,
2485.0,4053.0,1919.0,2057.0,3405197.0,
2483.0,4051.0,1926.0,2063.0,3405200.0,
2487.0,4053.0,1931.0,2069.0,3405205.0,
2489.0,4051.0,1948.0,2075.0,3405209.0,
2487.0,4052.0,1959.0,2083.0,3405213.0,
2485.0,4049.0,1976.0,2085.0,3405217.0,
2483.0,4052.0,1992.0,2090.0,3405220.0,
2487.0,4052.0,2013.0,2097.0,3405224.0,
2491.0,4051.0,2036.0,2102.0,3405228.0,
2488.0,4052.0,2061.0,2106.0,3405232.0,
2484.0,4051.0,2089.0,2108.0,3405236.0,
2483.0,4051.0,2120.0,2114.0,3405240.0,
2486.0,4051.0,2153.0,2114.0,3405244.0,
2489.0,4053.0,2187.0,2121.0,3405248.0,
2488.0,4051.0,2224.0,2121.0,3405251.0,
2485.0,4051.0,2254.0,2122.0,3405255.0,
2483.0,4053.0,2296.0,2126.0,3405259.0,
2486.0,4051.0,2330.0,2128.0,3405263.0,
2489.0,4052.0,2367.0,2130.0,3405268.0,
2488.0,4051.0,2401.0,2131.0,3405271.0,
2485.0,4050.0,2437.0,2134.0,3405275.0,
2485.0,4053.0,2476.0,2136.0,3405279.0,
2486.0,4053.0,2511.0,2137.0,3405283.0,
2489.0,4051.0,2545.0,2136.0,3405287.0,
2488.0,4051.0,2575.0,2140.0,3405291.0,
2485.0,4050.0,2605.0,2137.0,3405295.0,
2484.0,4052.0,2631.0,2140.0,3405299.0,
2486.0,4051.0,2654.0,2137.0,3405303.0,
2490.0,4050.0,2676.0,2138.0,3405307.0,
2489.0,4053.0,2694.0,2142.0,3405311.0,
2485.0,4052.0,2706.0,2141.0,3405315.0,
2484.0,4052.0,2716.0,2141.0,3405319.0,
2486.0,4052.0,2722.0,2139.0,3405322.0,
2490.0,4051.0,2724.0,2139.0,3405326.0,
2490.0,4053.0,2720.0,2138.0,3405330.0,
2486.0,4051.0,2717.0,2137.0,3405334.0,
2484.0,4053.0,2709.0,2134.0,3405338.0,
2486.0,4050.0,2698.0,2132.0,3405342.0,
2489.0,4052.0,2688.0,2129.0,3405346.0,
2490.0,4051.0,2672.0,2129.0,3405350.0,
2486.0,4054.0,2652.0,2128.0,3405354.0,
2483.0,4051.0,2633.0,2124.0,3405358.0,
2486.0,4055.0,2613.0,2123.0,3405362.0,
2490.0,4051.0,2600.0,2120.0,3405365.0,
2490.0,4051.0,2577.0,2118.0,3405370.0,
2485.0,4053.0,2557.0,2118.0,3405374.0,
2485.0,4052.0,2538.0,2111.0,3405378.0,
2486.0,4053.0,2513.0,2110.0,3405381.0,
2490.0,4052.0,2494.0,2108.0,3405385.0,
2489.0,4052.0,2470.0,2106.0,3405389.0,
2488.0,4052.0,2447.0,2101.0,3405393.0,
2486.0,4050.0,2424.0,2097.0,3405397.0,
2487.0,4052.0,2403.0,2095.0,3405402.0,
2490.0,4052.0,2382.0,2091.0,3405405.0,
2491.0,4051.0,2361.0,2088.0,3405409.0,
2489.0,4051.0,2340.0,2087.0,3405413.0,
2486.0,4052.0,2318.0,2084.0,3405417.0,
2487.0,4051.0,2296.0,2078.0,3405421.0,
2490.0,4053.0,2276.0,2079.0,3405425.0,
2492.0,4051.0,2257.0,2075.0,3405429.0,
2489.0,4053.0,2238.0,2072.0,3405433.0,
2486.0,4051.0,2220.0,2069.0,3405437.0,
2486.0,4053.0,2203.0,2067.0,3405441.0,
2491.0,4052.0,2187.0,2063.0,3405444.0,
2492.0,4052.0,2168.0,2063.0,3405448.0,
2491.0,4051.0,2153.0,2062.0,3405452.0,
2486.0,4052.0,2140.0,2061.0,3405456.0,
2487.0,4052.0,2121.0,2058.0,3405460.0,
2490.0,4052.0,2107.0,2057.0,3405464.0,
2492.0,4050.0,2099.0,2057.0,3405468.0,
2490.0,4053.0,2085.0,2056.0,3405472.0,
2487.0,4050.0,2076.0,2056.0,3405476.0,
2486.0,4052.0,2065.0,2053.0,3405480.0,
2490.0,4051.0,2057.0,2052.0,3405484.0,
2492.0,4052.0,2051.0,2053.0,3405488.0,
2489.0,4051.0,2045.0,2052.0,3405492.0,
2485.0,4051.0,2038.0,2050.0,3405496.0,
2487.0,4050.0,2038.0,2050.0,3405500.0,
2490.0,4052.0,2037.0,2052.0,3405505.0,
2492.0,4053.0,2035.0,2049.0,3405510.0,
2488.0,4051.0,2036.0,2052.0,3405514.0,
2485.0,4051.0,2040.0,2051.0,3405518.0,
2488.0,4051.0,2045.0,2049.0,3405522.0,
2491.0,4052.0,2049.0,2049.0,3405527.0,
2490.0,4051.0,2054.0,2049.0,3405531.0,
2487.0,4052.0,2060.0,2050.0,3405536.0,
2486.0,4052.0,2067.0,2047.0,3405540.0,
2490.0,4051.0,2072.0,2047.0,3405544.0,
2492.0,4050.0,2076.0,2051.0,3405548.0,
2489.0,4051.0,2082.0,2048.0,3405553.0,
2487.0,4053.0,2083.0,2052.0,3405557.0,
2486.0,4051.0,2088.0,2052.0,3405561.0,
2490.0,4051.0,2091.0,2054.0,3405565.0,
2491.0,4050.0,2100.0,2052.0,3405569.0,
2489.0,4052.0,2102.0,2054.0,3405573.0,
2486.0,4052.0,2105.0,2053.0,3405578.0,
2488.0,4050.0,2110.0,2052.0,3405581.0,
2491.0,4051.0,2110.0,2051.0,3405586.0,
2491.0,4050.0,2112.0,2050.0,3405590.0,
2487.0,4052.0,2110.0,2049.0,3405594.0,
2486.0,4053.0,2116.0,2049.0,3405598.0,
2488.0,4053.0,2116.0,2045.0,3405603.0,
2491.0,4051.0,2115.0,2041.0,3405607.0,
2490.0,4051.0,2116.0,2041.0,3405611.0,
2487.0,4051.0,2114.0,2038.0,3405615.0,
2485.0,4051.0,2111.0,2037.0,3405619.0,
2485.0,4051.0,2111.0,2034.0,3405623.0,
2491.0,4053.0,2108.0,2036.0,3405627.0,
2490.0,4051.0,2107.0,2032.0,3405631.0,
2486.0,4051.0,2106.0,2030.0,3405635.0,
2485.0,4053.0,2100.0,2033.0,3405639.0,
2488.0,4051.0,2097.0,2030.0,3405643.0,
2489.0,4053.0,2093.0,2030.0,3405647.0,
2489.0,4051.0,2085.0,2028.0,3405651.0,
2483.0,4053.0,2083.0,2027.0,3405655.0,
2485.0,4051.0,2076.0,2025.0,3405659.0,
2487.0,4053.0,2071.0,2024.0,3405663.0,
2489.0,4052.0,2065.0,2023.0,3405667.0,
2490.0,4052.0,2062.0,2025.0,3405671.0,
2484.0,4051.0,2057.0,2018.0,3405675.0,
2484.0,4052.0,2045.0,2023.0,3405679.0,
2487.0,4052.0,2035.0,2018.0,3405683.0,
2490.0,4053.0,2026.0,2018.0,3405687.0,
2488.0,4051.0,2019.0,2018.0,3405691.0,
2485.0,4053.0,2011.0,2014.0,3405695.0,
2485.0,4052.0,2002.0,2015.0,3405700.0,
2488.0,4050.0,1994.0,2012.0,3405704.0,
2489.0,4054.0,1987.0,2011.0,3405707.0,
2487.0,4053.0,1984.0,2012.0,3405711.0,
2485.0,4050.0,1979.0,2008.0,3405715.0,
2483.0,4052.0,1974.0,2011.0,3405719.0,
2488.0,4051.0,1971.0,2007.0,3405723.0,
2489.0,4054.0,1966.0,2008.0,3405727.0,
2488.0,4051.0,1961.0,2007.0,3405731.0,
2485.0,4053.0,1952.0,2008.0,3405735.0,
2483.0,4051.0,1951.0,2006.0,3405738.0,
2486.0,4051.0,1947.0,2005.0,3405742.0,
2488.0,4051.0,1943.0,2005.0,3405746.0,
2488.0,4051.0,1938.0,2006.0,3405750.0,
2484.0,4050.0,1934.0,2007.0,3405754.0,
2483.0,4051.0,1932.0,2007.0,3405758.0,
2487.0,4051.0,1928.0,2008.0,3405763.0,
2489.0,4053.0,1927.0,2009.0,3405767.0,
2488.0,4052.0,1922.0,2010.0,3405771.0,
2483.0,4052.0,1923.0,2007.0,3405776.0,
2486.0,4052.0,1916.0,2011.0,3405780.0,
2488.0,4051.0,1912.0,2010.0,3405785.0,
2489.0,4052.0,1909.0,2012.0,3405789.0,
2485.0,4051.0,1902.0,2011.0,3405793.0,
2482.0,4053.0,1900.0,2013.0,3405797.0,
2485.0,4052.0,1900.0,2010.0,3405801.0,
2488.0,4050.0,1904.0,2011.0,3405805.0,
2488.0,4052.0,1903.0,2011.0,3405809.0,
2486.0,4052.0,1904.0,2011.0,3405812.0,
2483.0,4052.0,1907.0,2013.0,3405816.0,
2485.0,4053.0,1910.0,2010.0,3405820.0,
2488.0,4051.0,1915.0,2008.0,3405824.0,
2490.0,4052.0,1917.0,2006.0,3405828.0,
2487.0,4051.0,1922.0,2007.0,3405831.0,
2482.0,4050.0,1925.0,2006.0,3405835.0,
2484.0,4052.0,1930.0,2006.0,3405839.0,
2487.0,4050.0,1933.0,2007.0,3405843.0,
2489.0,4053.0,1935.0,2007.0,3405847.0,
2487.0,4050.0,1939.0,2004.0,3405851.0,
2484.0,4052.0,1940.0,2006.0,3405855.0,
2484.0,4051.0,1942.0,2003.0,3405858.0,
2486.0,4051.0,1940.0,2002.0,3405862.0,
2489.0,4051.0,1938.0,2003.0,3405866.0,
2486.0,4051.0,1937.0,2002.0,3405871.0,
2483.0,4052.0,1938.0,2001.0,3405875.0,
2484.0,4052.0,1938.0,2002.0,3405879.0,
2487.0,4050.0,1938.0,2003.0,3405884.0,
2488.0,4052.0,1936.0,2005.0,3405889.0,
2484.0,4051.0,1933.0,2004.0,3405893.0,
2484.0,4053.0,1929.0,2008.0,3405897.0,
2485.0,4052.0,1923.0,2004.0,3405901.0,
2487.0,4051.0,1919.0,2006.0,3405905.0,
2489.0,4052.0,1915.0,2007.0,3405909.0,
2485.0,4052.0,1911.0,2009.0,3405913.0,
2484.0,4051.0,1907.0,2011.0,3405917.0,
2483.0,4052.0,1900.0,2013.0,3405921.0,
2489.0,4051.0,1897.0,2018.0,3405925.0,
2488.0,4052.0,1896.0,2023.0,3405929.0,
2487.0,4050.0,1893.0,2023.0,3405933.0,
2484.0,4052.0,1889.0,2028.0,3405937.0,
2485.0,4051.0,1887.0,2034.0,3405941.0,
2489.0,4053.0,1884.0,2040.0,3405945.0,
2489.0,4052.0,1885.0,2045.0,3405948.0,
2486.0,4051.0,1890.0,2049.0,3405952.0,
2484.0,4051.0,1894.0,2052.0,3405956.0,
2484.0,4052.0,1899.0,2057.0,3405960.0,
2489.0,4051.0,1905.0,2064.0,3405964.0,
2490.0,4052.0,1914.0,2072.0,3405968.0,
2487.0,4052.0,1925.0,2077.0,3405972.0,
2484.0,4052.0,1939.0,2085.0,3405976.0,
2485.0,4051.0,1951.0,2089.0,3405980.0,
2489.0,4052.0,1972.0,2094.0,3405984.0,
2490.0,4051.0,1991.0,2100.0,3405988.0,
2487.0,4054.0,2013.0,2106.0,3405992.0,
2485.0,4051.0,2040.0,2111.0,3405996.0,
2485.0,4053.0,2071.0,2118.0,3406000.0,
2488.0,4053.0,2106.0,2121.0,3406004.0,
2490.0,4053.0,2139.0,2125.0,3406008.0,
2487.0,4050.0,2174.0,2126.0,3406011.0,
2484.0,4053.0,2212.0,2132.0,3406015.0,
2484.0,4052.0,2253.0,2134.0,3406019.0,
2487.0,4051.0,2296.0,2137.0,3406023.0,
2489.0,4052.0,2341.0,2139.0,3406027.0,
2488.0,4051.0,2377.0,2143.0,3406030.0,
2485.0,4053.0,2418.0,2147.0,3406034.0,
2485.0,4052.0,2457.0,2146.0,3406038.0,
2487.0,4053.0,2493.0,2148.0,3406042.0,
2490.0,4049.0,2530.0,2150.0,3406046.0,
2488.0,4053.0,2563.0,2150.0,3406050.0,
2484.0,4051.0,2595.0,2149.0,3406054.0,
2484.0,4053.0,2622.0,2151.0,3406058.0,
2487.0,4051.0,2650.0,2152.0,3406062.0,
2490.0,4053.0,2670.0,2153.0,3406066.0,
2488.0,4052.0,2688.0,2147.0,3406070.0,
2485.0,4052.0,2704.0,2150.0,3406073.0,
2483.0,4051.0,2713.0,2150.0,3406077.0,
2487.0,4054.0,2725.0,2147.0,3406081.0,
2490.0,4052.0,2733.0,2146.0,3406085.0,
2489.0,4052.0,2736.0,2146.0,3406089.0,
2485.0,4050.0,2734.0,2144.0,3406093.0,
2483.0,4050.0,2731.0,2143.0,3406097.0,
2486.0,4051.0,2722.0,2143.0,3406101.0,
2489.0,4054.0,2717.0,2142.0,3406105.0,
2489.0,4051.0,2706.0,2141.0,3406109.0,
2486.0,4052.0,2694.0,2140.0,3406113.0,
2484.0,4050.0,2680.0,2137.0,3406116.0,
2487.0,4050.0,2665.0,2136.0,3406120.0,
2489.0,4053.0,2647.0,2134.0,3406124.0,
2490.0,4052.0,2629.0,2132.0,3406128.0,
2488.0,4053.0,2611.0,2132.0,3406132.0,
2483.0,4050.0,2590.0,2127.0,3406135.0,
2485.0,4050.0,2568.0,2125.0,3406139.0,
2488.0,4052.0,2548.0,2122.0,3406143.0,
2489.0,4051.0,2525.0,2121.0,3406147.0,
2487.0,4052.0,2504.0,2115.0,3406151.0,
2485.0,4052.0,2480.0,2115.0,3406155.0,
2485.0,4053.0,2461.0,2110.0,3406159.0,
2489.0,4052.0,2440.0,2107.0,3406163.0,
2489.0,4051.0,2420.0,2105.0,3406167.0,
2486.0,4050.0,2400.0,2099.0,3406171.0,
2484.0,4052.0,2379.0,2101.0,3406176.0,
2485.0,4051.0,2361.0,2094.0,3406179.0,
2489.0,4051.0,2341.0,2089.0,3406183.0,
2489.0,4052.0,2324.0,2087.0,3406188.0,
2487.0,4054.0,2304.0,2085.0,3406191.0,
2484.0,4051.0,2283.0,2080.0,3406195.0,
2484.0,4052.0,2268.0,2078.0,3406199.0,
2487.0,4052.0,2251.0,2077.0,3406203.0,
2489.0,4051.0,2235.0,2074.0,3406207.0,
2488.0,4052.0,2221.0,2075.0,3406211.0,
2484.0,4052.0,2205.0,2065.0,3406215.0,
2484.0,4052.0,2190.0,2070.0,3406219.0,
2487.0,4050.0,2176.0,2068.0,3406222.0,
2490.0,4051.0,2163.0,2065.0,3406226.0,
2487.0,4052.0,2150.0,2065.0,3406230.0,
2485.0,4050.0,2139.0,2059.0,3406234.0,
2483.0,4052.0,2131.0,2063.0,3406238.0,
2487.0,4050.0,2120.0,2062.0,3406242.0,
2489.0,4052.0,2110.0,2061.0,3406246.0,
2488.0,4051.0,2098.0,2059.0,3406250.0,
2484.0,4051.0,2088.0,2059.0,3406254.0,
2483.0,4050.0,2079.0,2057.0,3406257.0,
2486.0,4051.0,2072.0,2058.0,3406261.0,
2490.0,4052.0,2063.0,2057.0,3406265.0,
2488.0,4052.0,2052.0,2057.0,3406269.0,
2485.0,4052.0,2043.0,2058.0,3406273.0,
2484.0,4050.0,2036.0,2054.0,3406277.0,
2485.0,4052.0,2032.0,2054.0,3406281.0,
2489.0,4051.0,2025.0,2053.0,3406284.0,
2488.0,4053.0,2019.0,2055.0,3406289.0,
2485.0,4052.0,2017.0,2053.0,3406292.0,
2483.0,4052.0,2012.0,2051.0,3406296.0,
2486.0,4053.0,2012.0,2053.0,3406300.0,
2489.0,4051.0,2013.0,2050.0,3406304.0,
2489.0,4051.0,2013.0,2049.0,3406308.0,
2486.0,4051.0,2014.0,2049.0,3406312.0,
2483.0,4051.0,2015.0,2048.0,3406316.0,
2485.0,4054.0,2021.0,2049.0,3406320.0,
2489.0,4052.0,2022.0,2050.0,3406324.0,
2490.0,4052.0,2024.0,2051.0,3406327.0,
2487.0,4051.0,2029.0,2048.0,3406331.0,
2484.0,4051.0,2032.0,2047.0,3406335.0,
2485.0,4053.0,2036.0,2047.0,3406339.0,
2489.0,4052.0,2041.0,2046.0,3406344.0,
2489.0,4050.0,2045.0,2043.0,3406348.0,
2484.0,4052.0,2047.0,2045.0,3406352.0,
2483.0,4051.0,2051.0,2043.0,3406356.0,
2485.0,4054.0,2057.0,2043.0,3406360.0,
2488.0,4052.0,2057.0,2040.0,3406364.0,
2489.0,4052.0,2063.0,2039.0,3406368.0,
2487.0,4050.0,2069.0,2038.0,3406372.0,
2484.0,4052.0,2070.0,2038.0,3406376.0,
2485.0,4051.0,2070.0,2034.0,3406380.0,
2489.0,4053.0,2069.0,2036.0,3406384.0,
2489.0,4051.0,2069.0,2032.0,3406388.0,
2485.0,4052.0,2069.0,2032.0,3406392.0,
2483.0,4051.0,2072.0,2031.0,3406396.0,
2485.0,4050.0,2072.0,2028.0,3406400.0,
2489.0,4051.0,2068.0,2027.0,3406404.0,
2488.0,4053.0,2064.0,2028.0,3406408.0,
2486.0,4050.0,2062.0,2029.0,3406412.0,
2481.0,4053.0,2054.0,2027.0,3406416.0,
2484.0,4052.0,2048.0,2025.0,3406420.0,
2489.0,4053.0,2044.0,2026.0,3406423.0,
2490.0,4050.0,2033.0,2025.0,3406427.0,
2486.0,4051.0,2026.0,2020.0,3406431.0,
2484.0,4052.0,2017.0,2022.0,3406435.0,
2484.0,4052.0,2009.0,2020.0,3406439.0,
2488.0,4052.0,1999.0,2020.0,3406443.0,
2489.0,4050.0,1994.0,2019.0,3406447.0,
2487.0,4052.0,1989.0,2018.0,3406450.0,
2484.0,4047.0,1979.0,2015.0,3406454.0,
2483.0,4051.0,1975.0,2016.0,3406458.0,
2487.0,4053.0,1967.0,2019.0,3406462.0,
2489.0,4051.0,1959.0,2016.0,3406466.0,
2488.0,4052.0,1954.0,2015.0,3406469.0,
2483.0,4052.0,1946.0,2013.0,3406473.0,
2485.0,4051.0,1939.0,2009.0,3406478.0,
2487.0,4053.0,1935.0,2013.0,3406482.0,
2490.0,4051.0,1932.0,2010.0,3406486.0,
2487.0,4051.0,1926.0,2008.0,3406489.0,
2485.0,4052.0,1920.0,2008.0,3406494.0,
2484.0,4050.0,1917.0,2004.0,3406497.0,
2487.0,4052.0,1912.0,2006.0,3406501.0,
2489.0,4053.0,1908.0,2006.0,3406505.0,
2488.0,4051.0,1900.0,2005.0,3406509.0,
2484.0,4052.0,1893.0,2004.0,3406513.0,
2484.0,4052.0,1886.0,2001.0,3406517.0,
2486.0,4052.0,1880.0,2004.0,3406521.0,
2489.0,4052.0,1878.0,2003.0,3406525.0,
2489.0,4052.0,1873.0,2002.0,3406529.0,
2485.0,4052.0,1870.0,2004.0,3406532.0,
2484.0,4050.0,1865.0,2000.0,3406536.0,
2485.0,4052.0,1860.0,2000.0,3406540.0,
2489.0,4052.0,1861.0,2002.0,3406544.0,
2488.0,4051.0,1855.0,2000.0,3406548.0,
2485.0,4053.0,1850.0,2000.0,3406552.0,
2484.0,4051.0,1852.0,1998.0,3406556.0,
2486.0,4053.0,1845.0,2001.0,3406560.0,
2489.0,4050.0,1843.0,2001.0,3406564.0,
2488.0,4053.0,1840.0,2001.0,3406567.0,
2485.0,4052.0,1833.0,1998.0,3406571.0,
2483.0,4052.0,1831.0,1998.0,3406575.0,
2485.0,4054.0,1831.0,2000.0,3406579.0,
2488.0,4051.0,1830.0,2000.0,3406583.0,
2489.0,4053.0,1827.0,1996.0,3406587.0,
2486.0,4051.0,1831.0,1997.0,3406591.0,
2485.0,4052.0,1833.0,1999.0,3406594.0,
2485.0,4052.0,1838.0,1999.0,3406599.0,
2488.0,4049.0,1837.0,1997.0,3406602.0,
2489.0,4052.0,1839.0,1997.0,3406606.0,
2487.0,4051.0,1844.0,1996.0,3406610.0,
2484.0,4052.0,1844.0,1997.0,3406614.0,
2484.0,4052.0,1846.0,1996.0,3406618.0,
2488.0,4050.0,1847.0,1997.0,3406622.0,
2490.0,4051.0,1848.0,1996.0,3406626.0,
2487.0,4052.0,1851.0,1994.0,3406630.0,
2485.0,4053.0,1851.0,1998.0,3406634.0,
2484.0,4052.0,1854.0,1997.0,3406638.0,
2488.0,4054.0,1859.0,1998.0,3406642.0,
2489.0,4051.0,1860.0,1997.0,3406646.0,
2484.0,4051.0,1861.0,1998.0,3406649.0,
2485.0,4052.0,1864.0,1998.0,3406653.0,
2484.0,4052.0,1861.0,1997.0,3406657.0,
2487.0,4052.0,1864.0,1997.0,3406661.0,
2489.0,4051.0,1865.0,1997.0,3406665.0,
2488.0,4051.0,1864.0,1997.0,3406669.0,
2485.0,4050.0,1865.0,1995.0,3406673.0,
2484.0,4052.0,1861.0,1998.0,3406677.0,
2487.0,4052.0,1859.0,1996.0,3406681.0,
2490.0,4052.0,1858.0,1996.0,3406685.0,
2487.0,4052.0,1856.0,1997.0,3406689.0,
2484.0,4050.0,1860.0,1995.0,3406693.0,
2483.0,4053.0,1858.0,1999.0,3406696.0,
2487.0,4052.0,1860.0,2000.0,3406701.0,
2491.0,4052.0,1863.0,2001.0,3406704.0,
2487.0,4051.0,1867.0,2002.0,3406708.0,
2484.0,4050.0,1865.0,2001.0,3406712.0,
2485.0,4051.0,1871.0,2001.0,3406716.0,
2487.0,4052.0,1870.0,2004.0,3406720.0,
2489.0,4051.0,1869.0,2006.0,3406724.0,
2490.0,4052.0,1867.0,2009.0,3406728.0,
2484.0,4050.0,1866.0,2009.0,3406732.0,
2484.0,4053.0,1864.0,2012.0,3406735.0,
2486.0,4051.0,1866.0,2014.0,3406739.0,
2489.0,4053.0,1865.0,2019.0,3406743.0,
2488.0,4053.0,1865.0,2021.0,3406748.0,
2485.0,4052.0,1862.0,2022.0,3406752.0,
2483.0,4052.0,1864.0,2029.0,3406755.0,
2486.0,4051.0,1866.0,2031.0,3406759.0,
2489.0,4053.0,1867.0,2036.0,3406764.0,
2488.0,4051.0,1865.0,2040.0,3406768.0,
2485.0,4053.0,1865.0,2049.0,3406772.0,
2483.0,4052.0,1869.0,2053.0,3406776.0,
2486.0,4052.0,1872.0,2059.0,3406781.0,
2488.0,4051.0,1881.0,2067.0,3406785.0,
2488.0,4052.0,1887.0,2074.0,3406789.0,
2483.0,4050.0,1900.0,2080.0,3406793.0,
2485.0,4052.0,1915.0,2086.0,3406797.0,
2486.0,4050.0,1928.0,2088.0,3406800.0,
2489.0,4053.0,1950.0,2095.0,3406804.0,
2487.0,4051.0,1975.0,2098.0,3406808.0,
2485.0,4050.0,2008.0,2104.0,3406812.0,
2484.0,4052.0,2036.0,2111.0,3406816.0,
2486.0,4051.0,2071.0,2114.0,3406820.0,
2489.0,4053.0,2105.0,2121.0,3406824.0,
2489.0,4051.0,2141.0,2122.0,3406828.0,
2485.0,4052.0,2178.0,2128.0,3406832.0,
2483.0,4051.0,2217.0,2130.0,3406836.0,
2486.0,4053.0,2255.0,2131.0,3406840.0,
2489.0,4052.0,2293.0,2133.0,3406844.0,
2489.0,4052.0,2333.0,2136.0,3406848.0,
2485.0,4052.0,2365.0,2137.0,3406852.0,
2483.0,4051.0,2402.0,2141.0,3406855.0,
2486.0,4050.0,2440.0,2140.0,3406859.0,
2489.0,4051.0,2472.0,2138.0,3406863.0,
2489.0,4053.0,2500.0,2140.0,3406867.0,
2486.0,4051.0,2527.0,2139.0,3406871.0,
2483.0,4051.0,2553.0,2139.0,3406875.0,
2486.0,4051.0,2575.0,2138.0,3406879.0,
2489.0,4052.0,2595.0,2142.0,3406883.0,
2488.0,4052.0,2610.0,2137.0,3406887.0,
2485.0,4054.0,2621.0,2140.0,3406891.0,
2488.0,4052.0,2631.0,2143.0,3406895.0,
2486.0,4052.0,2639.0,2140.0,3406899.0,
2488.0,4053.0,2641.0,2139.0,3406903.0,
2490.0,4053.0,2643.0,2139.0,3406907.0,
2485.0,4051.0,2641.0,2138.0,3406911.0,
2482.0,4050.0,2637.0,2136.0,3406915.0,
2486.0,4052.0,2632.0,2138.0,3406919.0,
2488.0,4051.0,2623.0,2133.0,3406923.0,
2489.0,4053.0,2612.0,2137.0,3406927.0,
2486.0,4051.0,2599.0,2134.0,3406931.0,
2483.0,4052.0,2586.0,2134.0,3406935.0,
2485.0,4050.0,2567.0,2130.0,3406939.0,
2489.0,4053.0,2549.0,2129.0,3406943.0,
2488.0,4050.0,2527.0,2127.0,3406947.0,
2485.0,4054.0,2503.0,2124.0,3406951.0,
2484.0,4051.0,2483.0,2122.0,3406955.0,
2485.0,4052.0,2460.0,2123.0,3406958.0,
2489.0,4052.0,2442.0,2120.0,3406962.0,
2488.0,4052.0,2419.0,2115.0,3406966.0,
2486.0,4051.0,2398.0,2114.0,3406970.0,
2483.0,4053.0,2379.0,2110.0,3406974.0,
2485.0,4051.0,2355.0,2104.0,3406978.0,
2487.0,4051.0,2336.0,2103.0,3406981.0,
2490.0,4051.0,2318.0,2099.0,3406985.0,
2487.0,4051.0,2298.0,2095.0,3406989.0,
2484.0,4053.0,2280.0,2094.0,3406993.0,
2484.0,4051.0,2263.0,2088.0,3406997.0,
2487.0,4053.0,2247.0,2086.0,3407001.0,
2489.0,4052.0,2228.0,2082.0,3407004.0,
2488.0,4053.0,2213.0,2079.0,3407008.0,
2484.0,4051.0,2201.0,2075.0,3407012.0,
2483.0,4050.0,2185.0,2071.0,3407016.0,
2487.0,4053.0,2173.0,2068.0,3407020.0,
2489.0,4052.0,2158.0,2065.0,3407024.0,
2489.0,4053.0,2147.0,2062.0,3407027.0,
2486.0,4051.0,2131.0,2061.0,3407031.0,
2484.0,4051.0,2115.0,2059.0,3407035.0,
2486.0,4052.0,2102.0,2055.0,3407039.0,
2490.0,4052.0,2085.0,2051.0,3407043.0,
2488.0,4051.0,2077.0,2053.0,3407047.0,
2484.0,4051.0,2061.0,2052.0,3407051.0,
2483.0,4051.0,2048.0,2051.0,3407055.0,
2486.0,4050.0,2035.0,2048.0,3407060.0,
2490.0,4051.0,2023.0,2047.0,3407064.0,
2487.0,4050.0,2016.0,2046.0,3407068.0,
2485.0,4052.0,2009.0,2049.0,3407072.0,
2483.0,4052.0,2001.0,2045.0,3407076.0,
2486.0,4052.0,1994.0,2045.0,3407080.0,
2490.0,4052.0,1987.0,2044.0,3407084.0,
2489.0,4052.0,1983.0,2043.0,3407088.0,
2484.0,4052.0,1976.0,2043.0,3407092.0,
2484.0,4052.0,1974.0,2044.0,3407096.0,
2487.0,4051.0,1969.0,2040.0,3407099.0,
2490.0,4050.0,1969.0,2041.0,3407103.0,
2488.0,4054.0,1965.0,2041.0,3407107.0,
2485.0,4051.0,1966.0,2041.0,3407111.0,
2483.0,4051.0,1965.0,2041.0,3407115.0,
2487.0,4051.0,1967.0,2043.0,3407119.0,
2489.0,4053.0,1968.0,2043.0,3407123.0,
2488.0,4052.0,1969.0,2043.0,3407127.0,
2485.0,4051.0,1974.0,2043.0,3407131.0,
2484.0,4053.0,1976.0,2045.0,3407135.0,
2487.0,4052.0,1975.0,2045.0,3407139.0,
2489.0,4050.0,1976.0,2043.0,3407143.0,
2488.0,4050.0,1977.0,2044.0,3407147.0,
2486.0,4051.0,1978.0,2044.0,3407151.0,
2483.0,4051.0,1982.0,2044.0,3407155.0,
2486.0,4051.0,1986.0,2043.0,3407159.0,
2489.0,4053.0,1988.0,2044.0,3407163.0,
2489.0,4051.0,1991.0,2041.0,3407167.0,
2486.0,4052.0,1995.0,2043.0,3407170.0,
2483.0,4052.0,1997.0,2040.0,3407174.0,
2485.0,4051.0,2001.0,2039.0,3407178.0,
2487.0,4052.0,2008.0,2041.0,3407182.0,
2487.0,4051.0,2008.0,2035.0,3407186.0,
2486.0,4051.0,2011.0,2033.0,3407190.0,
2483.0,4053.0,2012.0,2033.0,3407193.0,
2485.0,4051.0,2017.0,2031.0,3407197.0,
2487.0,4051.0,2018.0,2030.0,3407201.0,
2491.0,4051.0,2018.0,2029.0,3407205.0,
2487.0,4053.0,2018.0,2024.0,3407209.0,
2484.0,4051.0,2016.0,2023.0,3407212.0,
2484.0,4052.0,2015.0,2023.0,3407216.0,
2487.0,4051.0,2013.0,2019.0,3407220.0,
2489.0,4051.0,2009.0,2021.0,3407224.0,
2488.0,4050.0,2007.0,2016.0,3407228.0,
2484.0,4052.0,2003.0,2014.0,3407231.0,
2485.0,4050.0,2000.0,2012.0,3407235.0,
2486.0,4051.0,1995.0,2012.0,3407239.0,
2490.0,4052.0,1991.0,2013.0,3407243.0,
2487.0,4051.0,1989.0,2010.0,3407247.0,
2483.0,4051.0,1984.0,2007.0,3407252.0,
2484.0,4053.0,1981.0,2008.0,3407255.0,
2487.0,4052.0,1975.0,2008.0,3407259.0,
2490.0,4051.0,1971.0,2006.0,3407263.0,
2487.0,4051.0,1962.0,2004.0,3407267.0,
2483.0,4052.0,1955.0,2007.0,3407271.0,
2483.0,4051.0,1944.0,2004.0,3407275.0,
2486.0,4052.0,1933.0,2006.0,3407279.0,
2489.0,4052.0,1920.0,2002.0,3407283.0,
2487.0,4052.0,1913.0,2003.0,3407287.0,
2485.0,4051.0,1903.0,2001.0,3407291.0,
2483.0,4053.0,1896.0,2002.0,3407294.0,
2486.0,4053.0,1889.0,1998.0,3407298.0,
2489.0,4052.0,1880.0,2001.0,3407302.0,
2488.0,4051.0,1872.0,1998.0,3407306.0,
2487.0,4051.0,1864.0,2004.0,3407310.0,
2482.0,4051.0,1861.0,1998.0,3407314.0,
2484.0,4051.0,1853.0,1999.0,3407318.0,
2488.0,4051.0,1849.0,2000.0,3407322.0,
2489.0,4052.0,1844.0,1999.0,3407326.0,
2487.0,4051.0,1837.0,1997.0,3407330.0,
2483.0,4053.0,1834.0,1997.0,3407334.0,
2486.0,4051.0,1834.0,1996.0,3407338.0,
2488.0,4052.0,1831.0,1998.0,3407342.0,
2488.0,4052.0,1831.0,1996.0,3407346.0,
2486.0,4053.0,1828.0,1998.0,3407350.0,
2483.0,4050.0,1834.0,1996.0,3407354.0,
2484.0,4053.0,1828.0,1996.0,3407357.0,
2490.0,4053.0,1830.0,1998.0,3407361.0,
2488.0,4051.0,1830.0,1998.0,3407365.0,
2486.0,4051.0,1832.0,1996.0,3407369.0,
2483.0,4052.0,1830.0,1998.0,3407373.0,
2483.0,4051.0,1829.0,2000.0,3407377.0,
2488.0,4052.0,1828.0,2002.0,3407381.0,
2489.0,4050.0,1825.0,2002.0,3407385.0,
2486.0,4053.0,1822.0,2002.0,3407388.0,
2484.0,4051.0,1822.0,2002.0,3407393.0,
2484.0,4053.0,1826.0,2003.0,3407397.0,
2488.0,4051.0,1821.0,2004.0,3407401.0,
2489.0,4052.0,1820.0,2005.0,3407404.0,
2486.0,4052.0,1823.0,2004.0,3407409.0,
2484.0,4051.0,1824.0,2002.0,3407412.0,
2484.0,4053.0,1823.0,2004.0,3407416.0,
2488.0,4053.0,1821.0,2000.0,3407420.0,
2489.0,4052.0,1819.0,2002.0,3407424.0,
2487.0,4051.0,1820.0,2001.0,3407428.0,
2486.0,4052.0,1819.0,2000.0,3407432.0,
2483.0,4051.0,1818.0,1998.0,3407435.0,
2487.0,4052.0,1819.0,1999.0,3407439.0,
2489.0,4052.0,1821.0,1999.0,3407443.0,
2488.0,4050.0,1821.0,1998.0,3407447.0,
2485.0,4052.0,1821.0,1998.0,3407451.0,
2483.0,4050.0,1825.0,1996.0,3407455.0,
2487.0,4052.0,1823.0,1998.0,3407459.0,
2489.0,4051.0,1823.0,1999.0,3407463.0,
2489.0,4052.0,1826.0,1999.0,3407467.0,
2484.0,4051.0,1828.0,1999.0,3407471.0,
2484.0,4052.0,1828.0,1996.0,3407474.0,
2486.0,4051.0,1831.0,1997.0,3407478.0,
2489.0,4051.0,1833.0,1998.0,3407483.0,
2488.0,4053.0,1844.0,1999.0,3407487.0,
2485.0,4051.0,1837.0,1999.0,3407490.0,
2483.0,4052.0,1838.0,1998.0,3407494.0,
2486.0,4052.0,1838.0,1996.0,3407498.0,
2488.0,4052.0,1840.0,1999.0,3407502.0,
2488.0,4051.0,1841.0,1994.0,3407506.0,
2485.0,4050.0,1842.0,1993.0,3407510.0,
2483.0,4053.0,1840.0,1997.0,3407514.0,
2485.0,4051.0,1843.0,1993.0,3407518.0,
2489.0,4053.0,1844.0,1996.0,3407522.0,
2488.0,4051.0,1842.0,1994.0,3407525.0,
2485.0,4051.0,1842.0,1996.0,3407529.0,
2484.0,4050.0,1843.0,1998.0,3407533.0,
2485.0,4053.0,1845.0,1997.0,3407537.0,
2489.0,4053.0,1841.0,1998.0,3407541.0,
2489.0,4052.0,1842.0,1995.0,3407545.0,
2486.0,4050.0,1842.0,1995.0,3407549.0,
2483.0,4053.0,1842.0,1995.0,3407553.0,
2485.0,4050.0,1846.0,1995.0,3407557.0,
2489.0,4052.0,1844.0,1996.0,3407561.0,
2489.0,4051.0,1842.0,1996.0,3407565.0,
2486.0,4052.0,1840.0,2000.0,3407569.0,
2483.0,4050.0,1838.0,1997.0,3407572.0,
2485.0,4052.0,1833.0,2001.0,3407576.0,
2488.0,4053.0,1832.0,2005.0,3407580.0,
2489.0,4051.0,1831.0,2005.0,3407584.0,
2486.0,4051.0,1827.0,2011.0,3407588.0,
2484.0,4052.0,1822.0,2017.0,3407592.0,
2484.0,4049.0,1819.0,2019.0,3407596.0,
2488.0,4052.0,1817.0,2026.0,3407600.0,
2489.0,4051.0,1816.0,2028.0,3407603.0,
2487.0,4052.0,1814.0,2033.0,3407607.0,
2484.0,4054.0,1818.0,2040.0,3407611.0,
2485.0,4052.0,1822.0,2045.0,3407615.0,
2487.0,4051.0,1830.0,2050.0,3407619.0,
2489.0,4053.0,1836.0,2059.0,3407623.0,
2488.0,4051.0,1844.0,2064.0,3407627.0,
2484.0,4051.0,1857.0,2068.0,3407631.0,
2483.0,4051.0,1870.0,2075.0,3407635.0,
2488.0,4052.0,1888.0,2081.0,3407639.0,
2489.0,4053.0,1905.0,2086.0,3407643.0,
2489.0,4051.0,1927.0,2093.0,3407646.0,
2484.0,4053.0,1958.0,2097.0,3407650.0,
2484.0,4053.0,1982.0,2102.0,3407654.0,
2487.0,4052.0,2008.0,2108.0,3407658.0,
2489.0,4051.0,2038.0,2109.0,3407662.0,
2488.0,4053.0,2073.0,2113.0,3407666.0,
2485.0,4050.0,2104.0,2116.0,3407670.0,
2483.0,4053.0,2144.0,2119.0,3407674.0,
2486.0,4052.0,2177.0,2121.0,3407677.0,
2488.0,4050.0,2216.0,2124.0,3407681.0,
2489.0,4052.0,2252.0,2127.0,3407685.0,
2486.0,4052.0,2288.0,2129.0,3407689.0,
2484.0,4051.0,2326.0,2128.0,3407693.0,
2487.0,4052.0,2366.0,2130.0,3407697.0,
2489.0,4052.0,2406.0,2133.0,3407701.0,
2488.0,4053.0,2441.0,2136.0,3407706.0,
2485.0,4050.0,2470.0,2136.0,3407710.0,
2485.0,4053.0,2495.0,2137.0,3407715.0,
2488.0,4050.0,2517.0,2136.0,3407719.0,
2489.0,4052.0,2535.0,2140.0,3407723.0,
2488.0,4051.0,2546.0,2139.0,3407727.0,
2485.0,4052.0,2557.0,2139.0,3407731.0,
2484.0,4052.0,2564.0,2139.0,3407735.0,
2488.0,4052.0,2565.0,2134.0,3407739.0,
2490.0,4051.0,2565.0,2134.0,3407743.0,
2487.0,4052.0,2567.0,2135.0,3407747.0,
2484.0,4051.0,2561.0,2129.0,3407751.0,
2485.0,4052.0,2559.0,2132.0,3407754.0,
2487.0,4051.0,2548.0,2126.0,3407758.0,
2491.0,4052.0,2539.0,2126.0,3407762.0,
2488.0,4052.0,2525.0,2124.0,3407766.0,
2484.0,4050.0,2512.0,2121.0,3407770.0,
2483.0,4052.0,2497.0,2120.0,3407774.0,
2486.0,4051.0,2482.0,2119.0,3407778.0,
2489.0,4053.0,2457.0,2116.0,3407781.0,
2489.0,4050.0,2437.0,2111.0,3407785.0,
2485.0,4053.0,2412.0,2109.0,3407789.0,
2484.0,4053.0,2390.0,2107.0,3407793.0,
2485.0,4052.0,2367.0,2105.0,3407797.0,
2489.0,4052.0,2345.0,2102.0,3407801.0,
2488.0,4050.0,2323.0,2098.0,3407805.0,
2485.0,4051.0,2300.0,2093.0,3407809.0,
2484.0,4053.0,2275.0,2089.0,3407813.0,
2486.0,4051.0,2253.0,2084.0,3407817.0,
2488.0,4053.0,2236.0,2082.0,3407821.0,
2489.0,4051.0,2212.0,2079.0,3407824.0,
2486.0,4052.0,2199.0,2075.0,3407828.0,
2484.0,4052.0,2179.0,2072.0,3407832.0,
2487.0,4052.0,2166.0,2069.0,3407836.0,
2489.0,4050.0,2150.0,2064.0,3407840.0,
2489.0,4052.0,2138.0,2061.0,3407844.0,
2486.0,4051.0,2125.0,2060.0,3407848.0,
2484.0,4053.0,2113.0,2058.0,3407852.0,
2486.0,4051.0,2102.0,2055.0,3407856.0,
2488.0,4051.0,2091.0,2056.0,3407859.0,
2489.0,4051.0,2081.0,2051.0,3407864.0,
2486.0,4052.0,2071.0,2050.0,3407867.0,
2484.0,4051.0,2060.0,2049.0,3407871.0,
2485.0,4051.0,2051.0,2045.0,3407875.0,
2486.0,4051.0,2039.0,2042.0,3407879.0,
2488.0,4050.0,2025.0,2043.0,3407883.0,
2487.0,4052.0,2018.0,2042.0,3407887.0,
2485.0,4053.0,2002.0,2043.0,3407891.0,
2484.0,4051.0,1993.0,2042.0,3407895.0,
2487.0,4054.0,1984.0,2042.0,3407899.0,
2489.0,4051.0,1974.0,2041.0,3407903.0,
2487.0,4052.0,1970.0,2041.0,3407907.0,
2483.0,4051.0,1964.0,2041.0,3407911.0,
2485.0,4053.0,1954.0,2040.0,3407916.0,
2489.0,4053.0,1945.0,2041.0,3407920.0,
2489.0,4051.0,1938.0,2040.0,3407924.0,
2485.0,4050.0,1928.0,2041.0,3407929.0,
2483.0,4052.0,1923.0,2042.0,3407933.0,
2485.0,4050.0,1920.0,2041.0,3407936.0,
2489.0,4052.0,1915.0,2044.0,3407940.0,
2491.0,4051.0,1915.0,2043.0,3407944.0,
2486.0,4053.0,1917.0,2045.0,3407948.0,
2484.0,4051.0,1919.0,2044.0,3407952.0,
2485.0,4054.0,1916.0,2046.0,3407956.0,
2488.0,4051.0,1922.0,2044.0,3407959.0,
2489.0,4052.0,1926.0,2043.0,3407963.0,
2487.0,4050.0,1930.0,2042.0,3407967.0,
2484.0,4053.0,1941.0,2042.0,3407971.0,
2484.0,4051.0,1940.0,2041.0,3407975.0,
2486.0,4053.0,1947.0,2040.0,3407979.0,
2489.0,4051.0,1950.0,2038.0,3407983.0,
2487.0,4052.0,1959.0,2040.0,3407986.0,
2485.0,4054.0,1964.0,2039.0,3407990.0,
2485.0,4053.0,1966.0,2039.0,3407994.0,
2486.0,4051.0,1974.0,2036.0,3407998.0,
2489.0,4052.0,1976.0,2035.0,3408002.0,
2487.0,4051.0,1981.0,2035.0,3408006.0,
2485.0,4052.0,1984.0,2035.0,3408010.0,
2483.0,4051.0,1989.0,2033.0,3408014.0,
2487.0,4052.0,1991.0,2031.0,3408017.0,
2489.0,4053.0,1997.0,2031.0,3408021.0,
2488.0,4052.0,1997.0,2028.0,3408025.0,
2484.0,4052.0,1999.0,2029.0,3408029.0,
2482.0,4052.0,1999.0,2026.0,3408033.0,
2486.0,4052.0,1999.0,2026.0,3408037.0,
2487.0,4053.0,1998.0,2024.0,3408041.0,
2489.0,4053.0,1999.0,2025.0,3408045.0,
2484.0,4051.0,2000.0,2023.0,3408049.0,
2484.0,4052.0,1997.0,2024.0,3408053.0,
2485.0,4051.0,1994.0,2022.0,3408057.0,
2489.0,4051.0,1989.0,2021.0,3408061.0,
2490.0,4052.0,1988.0,2017.0,3408065.0,
2487.0,4051.0,1983.0,2021.0,3408069.0,
2483.0,4050.0,1977.0,2018.0,3408073.0,
2485.0,4052.0,1968.0,2017.0,3408077.0,
2489.0,4052.0,1966.0,2015.0,3408081.0,
2488.0,4052.0,1957.0,2016.0,3408085.0,
2486.0,4052.0,1954.0,2014.0,3408088.0,
2483.0,4050.0,1950.0,2014.0,3408092.0,
2484.0,4053.0,1942.0,2016.0,3408096.0,
2488.0,4051.0,1936.0,2012.0,3408100.0,
2488.0,4052.0,1930.0,2015.0,3408104.0,
2486.0,4053.0,1925.0,2011.0,3408108.0,
2483.0,4052.0,1918.0,2011.0,3408111.0,
2484.0,4053.0,1914.0,2012.0,3408115.0,
2488.0,4052.0,1909.0,2012.0,3408119.0,
2490.0,4051.0,1902.0,2013.0,3408123.0,
2486.0,4052.0,1901.0,2011.0,3408127.0,
2484.0,4053.0,1897.0,2011.0,3408131.0,
2485.0,4051.0,1894.0,2009.0,3408134.0,
2487.0,4052.0,1890.0,2012.0,3408138.0,
2490.0,4051.0,1885.0,2011.0,3408142.0,
2487.0,4051.0,1879.0,2008.0,3408146.0,
2484.0,4052.0,1874.0,2010.0,3408150.0,
2484.0,4051.0,1872.0,2007.0,3408154.0,
2487.0,4052.0,1869.0,2008.0,3408157.0,
2487.0,4053.0,1866.0,2009.0,3408161.0,
2488.0,4052.0,1865.0,2007.0,3408166.0,
2483.0,4051.0,1862.0,2004.0,3408169.0,
2484.0,4052.0,1862.0,2006.0,3408173.0,
2487.0,4051.0,1858.0,2005.0,3408177.0,
2489.0,4052.0,1855.0,2008.0,3408181.0,
2488.0,4050.0,1854.0,2001.0,3408185.0,
2485.0,4052.0,1849.0,2002.0,3408189.0,
2483.0,4051.0,1846.0,2002.0,3408193.0,
2486.0,4051.0,1842.0,2001.0,3408197.0,
2489.0,4052.0,1837.0,2002.0,3408201.0,
2487.0,4051.0,1835.0,2001.0,3408205.0,
2484.0,4050.0,1834.0,2001.0,3408209.0,
2483.0,4050.0,1832.0,2000.0,3408213.0,
2486.0,4051.0,1833.0,2003.0,3408217.0,
2489.0,4052.0,1830.0,1999.0,3408221.0,
2488.0,4052.0,1831.0,2001.0,3408225.0,
2485.0,4052.0,1833.0,2001.0,3408229.0,
2484.0,4051.0,1834.0,2002.0,3408233.0,
2484.0,4051.0,1834.0,1999.0,3408236.0,
2489.0,4052.0,1836.0,1999.0,3408240.0,
2492.0,4051.0,1836.0,1998.0,3408244.0,
2485.0,4051.0,1837.0,1996.0,3408248.0,
2484.0,4052.0,1841.0,1998.0,3408252.0,
2486.0,4052.0,1845.0,1999.0,3408256.0,
2489.0,4053.0,1847.0,1996.0,3408260.0,
2487.0,4054.0,1855.0,1996.0,3408264.0,
2485.0,4052.0,1855.0,1994.0,3408268.0,
2482.0,4054.0,1858.0,1997.0,3408272.0,
2485.0,4051.0,1860.0,1996.0,3408276.0,
2488.0,4053.0,1862.0,1997.0,3408279.0,
2486.0,4051.0,1863.0,1993.0,3408283.0,
2486.0,4051.0,1866.0,1995.0,3408287.0,
2483.0,4051.0,1865.0,1992.0,3408291.0,
2484.0,4052.0,1865.0,1993.0,3408295.0,
2488.0,4051.0,1866.0,1992.0,3408299.0,
2489.0,4053.0,1863.0,1993.0,3408303.0,
2485.0,4053.0,1864.0,1991.0,3408307.0,
2484.0,4052.0,1864.0,1992.0,3408311.0,
2485.0,4052.0,1863.0,1992.0,3408315.0,
2489.0,4052.0,1866.0,1989.0,3408319.0,
2489.0,4053.0,1867.0,1990.0,3408323.0,
2486.0,4052.0,1867.0,1988.0,3408327.0,
2483.0,4054.0,1867.0,1992.0,3408331.0,
2484.0,4051.0,1868.0,1991.0,3408335.0,
2488.0,4053.0,1867.0,1992.0,3408339.0,
2489.0,4051.0,1867.0,1991.0,3408342.0,
2486.0,4052.0,1865.0,1992.0,3408346.0,
2486.0,4050.0,1866.0,1991.0,3408350.0,
2484.0,4053.0,1861.0,1995.0,3408354.0,
2487.0,4051.0,1859.0,1990.0,3408358.0,
2489.0,4054.0,1860.0,1995.0,3408361.0,
2488.0,4052.0,1855.0,1996.0,3408365.0,
2484.0,4051.0,1850.0,1991.0,3408369.0,
2483.0,4051.0,1849.0,1994.0,3408373.0,
2487.0,4053.0,1844.0,1994.0,3408377.0,
2491.0,4053.0,1844.0,1994.0,3408381.0,
2488.0,4051.0,1843.0,1994.0,3408385.0,
2484.0,4052.0,1840.0,1997.0,3408389.0,
2483.0,4052.0,1838.0,2001.0,3408393.0,
2487.0,4052.0,1837.0,2003.0,3408397.0,
2490.0,4050.0,1836.0,2005.0,3408400.0,
2488.0,4052.0,1840.0,2007.0,3408404.0,
2485.0,4052.0,1832.0,2009.0,3408408.0,
2484.0,4052.0,1832.0,2013.0,3408412.0,
2486.0,4053.0,1830.0,2019.0,3408416.0,
2489.0,4051.0,1829.0,2023.0,3408420.0,
2489.0,4051.0,1827.0,2027.0,3408424.0,
2485.0,4050.0,1827.0,2034.0,3408428.0,
2483.0,4051.0,1826.0,2040.0,3408432.0,
2487.0,4050.0,1831.0,2045.0,3408436.0,
2488.0,4050.0,1833.0,2049.0,3408440.0,
2489.0,4053.0,1837.0,2055.0,3408444.0,
2486.0,4050.0,1842.0,2061.0,3408448.0,
2484.0,4052.0,1848.0,2066.0,3408452.0,
2485.0,4050.0,1862.0,2067.0,3408456.0,
2489.0,4052.0,1879.0,2071.0,3408459.0,
2488.0,4052.0,1897.0,2077.0,3408463.0,
2483.0,4052.0,1917.0,2081.0,3408467.0,
2483.0,4052.0,1938.0,2087.0,3408471.0,
2485.0,4052.0,1964.0,2089.0,3408475.0,
2489.0,4053.0,1994.0,2095.0,3408479.0,
2489.0,4051.0,2022.0,2098.0,3408484.0,
2485.0,4051.0,2056.0,2101.0,3408488.0,
2482.0,4052.0,2084.0,2106.0,3408492.0,
2486.0,4053.0,2114.0,2105.0,3408496.0,
2489.0,4052.0,2142.0,2109.0,3408500.0,
2489.0,4051.0,2179.0,2111.0,3408504.0,
2484.0,4052.0,2205.0,2112.0,3408508.0,
2485.0,4051.0,2244.0,2112.0,3408512.0,
2486.0,4053.0,2265.0,2113.0,3408516.0,
2489.0,4051.0,2297.0,2115.0,3408520.0,
2488.0,4052.0,2319.0,2115.0,3408523.0,
2485.0,4051.0,2346.0,2112.0,3408527.0,
2484.0,4053.0,2370.0,2114.0,3408531.0,
2485.0,4050.0,2390.0,2112.0,3408535.0,
2488.0,4054.0,2407.0,2117.0,3408539.0,
2488.0,4051.0,2422.0,2112.0,3408543.0,
2485.0,4051.0,2438.0,2109.0,3408547.0,
2483.0,4051.0,2446.0,2110.0,3408551.0,
2485.0,4049.0,2451.0,2108.0,3408555.0,
2489.0,4052.0,2453.0,2106.0,3408559.0,
2489.0,4052.0,2452.0,2106.0,3408564.0,
2484.0,4051.0,2448.0,2101.0,3408567.0,
2483.0,4050.0,2444.0,2102.0,3408571.0,
2485.0,4051.0,2436.0,2100.0,3408575.0,
2489.0,4053.0,2425.0,2099.0,3408579.0,
2489.0,4051.0,2416.0,2095.0,3408583.0,
2485.0,4049.0,2403.0,2096.0,3408587.0,
2485.0,4052.0,2390.0,2095.0,3408591.0,
2484.0,4051.0,2373.0,2093.0,3408595.0,
2489.0,4053.0,2357.0,2091.0,3408599.0,
2490.0,4051.0,2333.0,2087.0,3408603.0,
2486.0,4052.0,2308.0,2087.0,3408607.0,
2483.0,4050.0,2285.0,2080.0,3408611.0,
2485.0,4052.0,2263.0,2081.0,3408614.0,
2488.0,4051.0,2240.0,2078.0,3408618.0,
2488.0,4051.0,2220.0,2073.0,3408622.0,
2486.0,4052.0,2195.0,2067.0,3408626.0,
2484.0,4052.0,2174.0,2068.0,3408630.0,
2485.0,4053.0,2156.0,2065.0,3408634.0,
2488.0,4051.0,2135.0,2061.0,3408638.0,
2489.0,4051.0,2116.0,2058.0,3408642.0,
2486.0,4052.0,2103.0,2059.0,3408646.0,
2483.0,4052.0,2083.0,2056.0,3408650.0,
2485.0,4052.0,2064.0,2055.0,3408654.0,
2487.0,4051.0,2049.0,2049.0,3408657.0,
2487.0,4052.0,2033.0,2049.0,3408661.0,
2486.0,4053.0,2019.0,2047.0,3408665.0,
2484.0,4052.0,2007.0,2047.0,3408669.0,
2485.0,4052.0,1993.0,2045.0,3408673.0,
2488.0,4052.0,1980.0,2043.0,3408678.0,
2489.0,4051.0,1970.0,2041.0,3408682.0,
2486.0,4053.0,1956.0,2043.0,3408686.0,
2484.0,4051.0,1946.0,2039.0,3408690.0,
2484.0,4053.0,1934.0,2037.0,3408694.0,
2488.0,4051.0,1922.0,2039.0,3408697.0,
2489.0,4053.0,1910.0,2038.0,3408701.0,
2487.0,4050.0,1903.0,2037.0,3408705.0,
2483.0,4052.0,1892.0,2039.0,3408709.0,
2484.0,4051.0,1886.0,2038.0,3408713.0,
2487.0,4053.0,1879.0,2038.0,3408717.0,
2490.0,4050.0,1873.0,2034.0,3408721.0,
2488.0,4052.0,1866.0,2038.0,3408724.0,
2485.0,4050.0,1864.0,2035.0,3408728.0,
2484.0,4051.0,1859.0,2037.0,3408732.0,
2486.0,4051.0,1859.0,2039.0,3408736.0,
2489.0,4050.0,1859.0,2038.0,3408740.0,
2488.0,4053.0,1860.0,2041.0,3408744.0,
2484.0,4050.0,1860.0,2042.0,3408748.0,
2484.0,4054.0,1863.0,2041.0,3408752.0,
2485.0,4051.0,1863.0,2041.0,3408755.0,
2490.0,4051.0,1868.0,2042.0,3408759.0,
2488.0,4053.0,1873.0,2040.0,3408763.0,
2484.0,4051.0,1872.0,2041.0,3408767.0,
2483.0,4052.0,1879.0,2040.0,3408771.0,
2486.0,4051.0,1878.0,2040.0,3408775.0,
2488.0,4052.0,1883.0,2040.0,3408779.0,
2489.0,4051.0,1892.0,2039.0,3408783.0,
2486.0,4052.0,1897.0,2041.0,3408786.0,
2483.0,4052.0,1905.0,2038.0,3408790.0,
2485.0,4053.0,1911.0,2039.0,3408794.0,
2488.0,4052.0,1919.0,2038.0,3408798.0,
2489.0,4051.0,1924.0,2038.0,3408802.0,
2489.0,4053.0,1930.0,2039.0,3408806.0,
2484.0,4051.0,1932.0,2035.0,3408810.0,
2485.0,4052.0,1938.0,2037.0,3408814.0,
2489.0,4051.0,1941.0,2035.0,3408817.0,
2490.0,4053.0,1945.0,2035.0,3408821.0,
2490.0,4053.0,1946.0,2033.0,3408825.0,
2483.0,4050.0,1949.0,2030.0,3408829.0,
2484.0,4053.0,1956.0,2032.0,3408833.0,
2487.0,4050.0,1961.0,2028.0,3408837.0,
2490.0,4052.0,1963.0,2029.0,3408841.0,
2488.0,4049.0,1962.0,2029.0,3408845.0,
2484.0,4052.0,1970.0,2025.0,3408849.0,
2485.0,4052.0,1970.0,2025.0,3408854.0,
2488.0,4050.0,1966.0,2022.0,3408858.0,
2490.0,4052.0,1963.0,2022.0,3408861.0,
2487.0,4053.0,1956.0,2021.0,3408865.0,
2485.0,4053.0,1952.0,2019.0,3408869.0,
2485.0,4050.0,1948.0,2016.0,3408873.0,
2488.0,4052.0,1943.0,2017.0,3408877.0,
2489.0,4053.0,1939.0,2018.0,3408881.0,
2486.0,4053.0,1932.0,2014.0,3408885.0,
2481.0,4052.0,1927.0,2013.0,3408889.0,
2485.0,4053.0,1922.0,2013.0,3408893.0,
2489.0,4053.0,1913.0,2012.0,3408897.0,
2490.0,4052.0,1907.0,2011.0,3408901.0,
2486.0,4052.0,1903.0,2008.0,3408905.0,
2485.0,4052.0,1893.0,2012.0,3408909.0,
2482.0,4052.0,1887.0,2009.0,3408913.0,
2488.0,4052.0,1878.0,2011.0,3408916.0,
2493.0,4052.0,1873.0,2010.0,3408920.0,
2487.0,4053.0,1866.0,2010.0,3408924.0,
2484.0,4051.0,1864.0,2008.0,3408928.0,
2483.0,4052.0,1855.0,2011.0,3408933.0,
2488.0,4051.0,1846.0,2006.0,3408937.0,
2488.0,4053.0,1839.0,2008.0,3408941.0,
2489.0,4050.0,1832.0,2005.0,3408944.0,
2484.0,4051.0,1827.0,2005.0,3408948.0,
2484.0,4051.0,1819.0,2006.0,3408952.0,
2487.0,4052.0,1818.0,2008.0,3408956.0,
2489.0,4053.0,1810.0,2004.0,3408960.0,
2488.0,4053.0,1807.0,2003.0,3408963.0,
2484.0,4053.0,1804.0,2004.0,3408967.0,
2483.0,4052.0,1802.0,2002.0,3408971.0,
2486.0,4051.0,1803.0,2001.0,3408975.0,
2490.0,4053.0,1801.0,2002.0,3408979.0,
2488.0,4052.0,1800.0,2000.0,3408984.0,
2483.0,4051.0,1799.0,1999.0,3408988.0,
2485.0,4050.0,1799.0,1998.0,3408992.0,
2487.0,4049.0,1801.0,1995.0,3408996.0,
2489.0,4052.0,1800.0,1998.0,3409000.0,
2487.0,4050.0,1801.0,1995.0,3409003.0,
2484.0,4051.0,1801.0,1998.0,3409008.0,
2484.0,4051.0,1804.0,1996.0,3409012.0,
2487.0,4053.0,1808.0,1998.0,3409016.0,
2490.0,4049.0,1809.0,1997.0,3409020.0,
2488.0,4052.0,1813.0,1999.0,3409023.0,
2484.0,4053.0,1816.0,2000.0,3409027.0,
2483.0,4050.0,1821.0,1999.0,3409031.0,
2486.0,4050.0,1824.0,1999.0,3409035.0,
2489.0,4051.0,1826.0,1997.0,3409039.0,
2488.0,4053.0,1823.0,2000.0,3409043.0,
2485.0,4052.0,1822.0,1996.0,3409046.0,
2484.0,4054.0,1820.0,2000.0,3409050.0,
2487.0,4053.0,1817.0,2000.0,3409054.0,
2489.0,4053.0,1811.0,2001.0,3409059.0,
2488.0,4051.0,1812.0,2000.0,3409063.0,
2485.0,4052.0,1811.0,2001.0,3409067.0,
2484.0,4052.0,1806.0,2002.0,3409070.0,
2486.0,4052.0,1807.0,2003.0,3409074.0,
2489.0,4053.0,1805.0,2001.0,3409078.0,
2489.0,4052.0,1808.0,2002.0,3409082.0,
2485.0,4051.0,1811.0,2002.0,3409086.0,
2484.0,4052.0,1807.0,2002.0,3409090.0,
2483.0,4051.0,1812.0,2001.0,3409093.0,
2489.0,4051.0,1811.0,2001.0,3409097.0,
2490.0,4051.0,1811.0,2000.0,3409101.0,
2486.0,4050.0,1812.0,2002.0,3409105.0,
2483.0,4053.0,1813.0,2001.0,3409109.0,
2484.0,4050.0,1814.0,2002.0,3409113.0,
2489.0,4050.0,1815.0,2001.0,3409117.0,
2488.0,4050.0,1819.0,2003.0,3409121.0,
2486.0,4051.0,1819.0,2002.0,3409125.0,
2484.0,4052.0,1821.0,2003.0,3409129.0,
2485.0,4051.0,1824.0,2004.0,3409133.0,
2489.0,4052.0,1827.0,2007.0,3409137.0,
2489.0,4051.0,1830.0,2006.0,3409141.0,
2486.0,4053.0,1831.0,2011.0,3409145.0,
2484.0,4052.0,1836.0,2013.0,3409148.0,
2484.0,4051.0,1839.0,2015.0,3409152.0,
2487.0,4051.0,1838.0,2017.0,3409156.0,
2490.0,4050.0,1841.0,2021.0,3409160.0,
2486.0,4052.0,1843.0,2026.0,3409164.0,
2483.0,4052.0,1842.0,2029.0,3409168.0,
2484.0,4053.0,1842.0,2036.0,3409172.0,
2488.0,4051.0,1842.0,2038.0,3409176.0,
2489.0,4051.0,1843.0,2043.0,3409180.0,
2487.0,4051.0,1841.0,2048.0,3409184.0,
2484.0,4053.0,1842.0,2055.0,3409189.0,
2484.0,4051.0,1848.0,2056.0,3409193.0,
2488.0,4051.0,1851.0,2060.0,3409197.0,
2488.0,4051.0,1856.0,2062.0,3409201.0,
2485.0,4052.0,1867.0,2070.0,3409205.0,
2482.0,4051.0,1873.0,2072.0,3409209.0,
2486.0,4052.0,1884.0,2077.0,3409214.0,
2488.0,4051.0,1900.0,2081.0,3409218.0,
2489.0,4053.0,1912.0,2084.0,3409222.0,
2484.0,4052.0,1934.0,2089.0,3409226.0,
2484.0,4051.0,1949.0,2090.0,3409230.0,
2487.0,4052.0,1975.0,2096.0,3409234.0,
2489.0,4052.0,1995.0,2097.0,3409238.0,
2489.0,4053.0,2022.0,2099.0,3409241.0,
2486.0,4052.0,2049.0,2101.0,3409245.0,
2483.0,4051.0,2076.0,2103.0,3409249.0,
2490.0,4051.0,2104.0,2102.0,3409253.0,
2488.0,4053.0,2137.0,2105.0,3409257.0,
2487.0,4053.0,2164.0,2105.0,3409261.0,
2486.0,4053.0,2199.0,2105.0,3409266.0,
2484.0,4052.0,2221.0,2107.0,3409270.0,
2486.0,4052.0,2249.0,2106.0,3409274.0,
2489.0,4051.0,2269.0,2107.0,3409279.0,
2488.0,4052.0,2290.0,2104.0,3409283.0,
2484.0,4052.0,2305.0,2109.0,3409287.0,
2482.0,4053.0,2317.0,2109.0,3409292.0,
2487.0,4053.0,2323.0,2104.0,3409296.0,
2489.0,4052.0,2328.0,2106.0,3409300.0,
2487.0,4051.0,2329.0,2103.0,3409304.0,
2483.0,4053.0,2329.0,2108.0,3409307.0,
2483.0,4052.0,2325.0,2102.0,3409311.0,
2487.0,4051.0,2318.0,2102.0,3409316.0,
2490.0,4052.0,2308.0,2103.0,3409320.0,
2487.0,4050.0,2303.0,2097.0,3409324.0,
2481.0,4054.0,2296.0,2099.0,3409328.0,
2484.0,4051.0,2286.0,2097.0,3409331.0,
2488.0,4051.0,2273.0,2094.0,3409336.0,
2490.0,4052.0,2258.0,2093.0,3409339.0,
2488.0,4052.0,2246.0,2089.0,3409343.0,
2485.0,4053.0,2229.0,2089.0,3409347.0,
2485.0,4051.0,2214.0,2084.0,3409351.0,
2488.0,4051.0,2194.0,2084.0,3409355.0,
2489.0,4052.0,2179.0,2081.0,3409359.0,
2488.0,4050.0,2158.0,2075.0,3409363.0,
2485.0,4053.0,2139.0,2074.0,3409367.0,
2485.0,4051.0,2118.0,2073.0,3409370.0,
2487.0,4052.0,2099.0,2070.0,3409374.0,
2489.0,4051.0,2082.0,2068.0,3409378.0,
2489.0,4052.0,2060.0,2064.0,3409382.0,
2484.0,4051.0,2042.0,2061.0,3409386.0,
2483.0,4052.0,2022.0,2060.0,3409390.0,
2486.0,4050.0,2005.0,2057.0,3409394.0,
2490.0,4052.0,1988.0,2053.0,3409398.0,
2489.0,4052.0,1971.0,2052.0,3409402.0,
2486.0,4051.0,1957.0,2052.0,3409406.0,
2484.0,4051.0,1947.0,2047.0,3409410.0,
2487.0,4052.0,1935.0,2047.0,3409414.0,
2490.0,4051.0,1926.0,2044.0,3409418.0,
2491.0,4053.0,1916.0,2043.0,3409422.0,
2486.0,4051.0,1911.0,2040.0,3409426.0,
2482.0,4053.0,1904.0,2039.0,3409430.0,
2486.0,4051.0,1897.0,2038.0,3409433.0,
2488.0,4052.0,1892.0,2038.0,3409437.0,
2489.0,4051.0,1891.0,2035.0,3409441.0,
2486.0,4052.0,1883.0,2036.0,3409445.0,
2483.0,4052.0,1874.0,2036.0,3409448.0,
2485.0,4049.0,1870.0,2035.0,3409452.0,
2487.0,4051.0,1861.0,2031.0,3409456.0,
2489.0,4049.0,1857.0,2034.0,3409460.0,
2486.0,4052.0,1848.0,2032.0,3409464.0,
2485.0,4052.0,1845.0,2033.0,3409468.0,
2484.0,4051.0,1841.0,2034.0,3409472.0,
2488.0,4051.0,1839.0,2033.0,3409476.0,
2488.0,4051.0,1837.0,2032.0,3409480.0,
2487.0,4053.0,1835.0,2032.0,3409484.0,
2484.0,4051.0,1837.0,2033.0,3409488.0,
2485.0,4052.0,1839.0,2036.0,3409492.0,
2486.0,4051.0,1841.0,2033.0,3409496.0,
2489.0,4051.0,1846.0,2036.0,3409499.0,
2488.0,4052.0,1844.0,2036.0,3409503.0,
2484.0,4053.0,1846.0,2036.0,3409507.0,
2484.0,4051.0,1852.0,2033.0,3409511.0,
2487.0,4052.0,1852.0,2035.0,3409515.0,
2489.0,4050.0,1859.0,2035.0,3409519.0,
2487.0,4053.0,1862.0,2035.0,3409523.0,
2483.0,4052.0,1869.0,2037.0,3409527.0,
2485.0,4053.0,1872.0,2037.0,3409531.0,
2487.0,4051.0,1883.0,2036.0,3409534.0,
2489.0,4052.0,1887.0,2040.0,3409538.0,
2488.0,4052.0,1896.0,2038.0,3409542.0,
2486.0,4051.0,1905.0,2037.0,3409546.0,
2484.0,4054.0,1912.0,2041.0,3409550.0,
2487.0,4051.0,1917.0,2039.0,3409554.0,
2489.0,4054.0,1927.0,2040.0,3409557.0,
2489.0,4053.0,1933.0,2040.0,3409561.0,
2486.0,4051.0,1939.0,2038.0,3409565.0,
2484.0,4052.0,1946.0,2040.0,3409569.0,
2486.0,4051.0,1951.0,2038.0,3409573.0,
2489.0,4051.0,1956.0,2034.0,3409576.0,
2490.0,4053.0,1960.0,2035.0,3409580.0,
2485.0,4053.0,1962.0,2036.0,3409584.0,
2486.0,4051.0,1959.0,2032.0,3409588.0,
2485.0,4053.0,1958.0,2033.0,3409592.0,
2489.0,4052.0,1956.0,2030.0,3409596.0,
2489.0,4052.0,1959.0,2028.0,3409599.0,
2486.0,4052.0,1955.0,2028.0,3409603.0,
2485.0,4052.0,1957.0,2028.0,3409607.0,
2484.0,4051.0,1953.0,2024.0,3409611.0,
2487.0,4053.0,1946.0,2025.0,3409615.0,
2489.0,4051.0,1945.0,2022.0,3409619.0,
2488.0,4051.0,1937.0,2021.0,3409622.0,
2481.0,4051.0,1933.0,2019.0,3409626.0,
2484.0,4053.0,1928.0,2020.0,3409630.0,
2487.0,4052.0,1926.0,2014.0,3409634.0,
2492.0,4053.0,1922.0,2018.0,3409638.0,
2489.0,4051.0,1921.0,2014.0,3409641.0,
2485.0,4051.0,1919.0,2014.0,3409645.0,
2483.0,4052.0,1917.0,2013.0,3409649.0,
2486.0,4054.0,1909.0,2013.0,3409653.0,
2491.0,4052.0,1906.0,2012.0,3409657.0,
2489.0,4051.0,1905.0,2010.0,3409661.0,
2486.0,4051.0,1900.0,2008.0,3409665.0,
2483.0,4052.0,1897.0,2007.0,3409669.0,
2486.0,4052.0,1890.0,2006.0,3409672.0,
2489.0,4052.0,1889.0,2001.0,3409676.0,
2489.0,4053.0,1881.0,2002.0,3409680.0,
2485.0,4051.0,1874.0,2002.0,3409684.0,
2484.0,4052.0,1869.0,2002.0,3409688.0,
2485.0,4052.0,1863.0,1997.0,3409691.0,
2488.0,4051.0,1855.0,2000.0,3409695.0,
2488.0,4052.0,1848.0,1998.0,3409699.0,
2488.0,4051.0,1842.0,1997.0,3409703.0,
2484.0,4052.0,1834.0,1996.0,3409707.0,
2485.0,4050.0,1833.0,1993.0,3409711.0,
2487.0,4051.0,1824.0,1994.0,3409714.0,
2489.0,4051.0,1823.0,1992.0,3409718.0,
2487.0,4052.0,1821.0,1994.0,3409722.0,
2484.0,4051.0,1815.0,1994.0,3409726.0,
2484.0,4051.0,1816.0,1990.0,3409730.0,
2487.0,4052.0,1816.0,1995.0,3409734.0,
2486.0,4051.0,1814.0,1989.0,3409738.0,
2488.0,4053.0,1812.0,1995.0,3409741.0,
2483.0,4050.0,1814.0,1994.0,3409745.0,
2484.0,4050.0,1818.0,1994.0,3409749.0,
2487.0,4053.0,1818.0,1995.0,3409753.0,
2489.0,4051.0,1819.0,1994.0,3409757.0,
2489.0,4052.0,1826.0,1998.0,3409761.0,
2485.0,4051.0,1823.0,1996.0,3409764.0,
2483.0,4053.0,1824.0,1997.0,3409768.0,
2485.0,4053.0,1827.0,1996.0,3409772.0,
2487.0,4052.0,1831.0,1997.0,3409776.0,
2488.0,4051.0,1834.0,1999.0,3409780.0,
2485.0,4050.0,1836.0,1998.0,3409784.0,
2484.0,4053.0,1837.0,2002.0,3409787.0,
2484.0,4053.0,1844.0,2001.0,3409791.0,
2488.0,4052.0,1845.0,2000.0,3409795.0,
2489.0,4051.0,1846.0,2002.0,3409799.0,
2487.0,4051.0,1847.0,1999.0,3409803.0,
2483.0,4054.0,1846.0,2001.0,3409807.0,
2484.0,4050.0,1846.0,2001.0,3409811.0,
2488.0,4052.0,1842.0,2003.0,3409814.0,
2489.0,4050.0,1843.0,1999.0,3409818.0,
2487.0,4051.0,1845.0,1998.0,3409822.0,
2484.0,4052.0,1847.0,2001.0,3409826.0,
2484.0,4051.0,1851.0,2000.0,3409830.0,
2487.0,4052.0,1855.0,2000.0,3409834.0,
2489.0,4052.0,1860.0,1998.0,3409837.0,
2489.0,4052.0,1863.0,1997.0,3409841.0,
2483.0,4050.0,1869.0,1996.0,3409845.0,
2484.0,4051.0,1871.0,1994.0,3409849.0,
2487.0,4051.0,1871.0,1996.0,3409853.0,
2489.0,4051.0,1872.0,1996.0,3409857.0,
2489.0,4053.0,1871.0,1996.0,3409861.0,
2485.0,4050.0,1869.0,1996.0,3409864.0,
2483.0,4051.0,1867.0,1993.0,3409868.0,
2485.0,4051.0,1864.0,1994.0,3409872.0,
2489.0,4052.0,1860.0,1997.0,3409876.0,
2489.0,4051.0,1857.0,1994.0,3409880.0,
2487.0,4051.0,1854.0,1997.0,3409884.0,
2483.0,4051.0,1855.0,1998.0,3409887.0,
2484.0,4051.0,1849.0,1996.0,3409891.0,
2488.0,4051.0,1849.0,2002.0,3409895.0,
2489.0,4053.0,1849.0,2004.0,3409899.0,
2488.0,4051.0,1845.0,2005.0,3409903.0,
2484.0,4052.0,1845.0,2009.0,3409907.0,
2483.0,4052.0,1841.0,2012.0,3409911.0,
2487.0,4052.0,1841.0,2015.0,3409914.0,
2490.0,4053.0,1842.0,2022.0,3409918.0,
2486.0,4052.0,1840.0,2027.0,3409922.0,
2484.0,4052.0,1842.0,2034.0,3409926.0,
2487.0,4051.0,1838.0,2038.0,3409930.0,
2486.0,4051.0,1843.0,2041.0,3409934.0,
2490.0,4051.0,1846.0,2047.0,3409937.0,
2488.0,4051.0,1852.0,2054.0,3409941.0,
2484.0,4051.0,1855.0,2058.0,3409945.0,
2485.0,4053.0,1861.0,2068.0,3409949.0,
2487.0,4052.0,1871.0,2075.0,3409953.0,
2489.0,4050.0,1881.0,2079.0,3409957.0,
2488.0,4052.0,1888.0,2087.0,3409961.0,
2485.0,4051.0,1900.0,2090.0,3409965.0,
2484.0,4051.0,1914.0,2095.0,3409969.0,
2486.0,4050.0,1930.0,2103.0,3409973.0,
2489.0,4053.0,1948.0,2108.0,3409977.0,
2488.0,4051.0,1967.0,2111.0,3409981.0,
2482.0,4052.0,1990.0,2115.0,3409985.0,
2483.0,4051.0,2009.0,2116.0,3409989.0,
2487.0,4052.0,2034.0,2122.0,3409993.0,
2489.0,4050.0,2059.0,2121.0,3409996.0,
2488.0,4052.0,2083.0,2123.0,3410000.0,
2485.0,4050.0,2107.0,2127.0,3410004.0,
2483.0,4051.0,2136.0,2129.0,3410008.0,
2486.0,4051.0,2163.0,2129.0,3410012.0,
2491.0,4052.0,2189.0,2134.0,3410016.0,
2489.0,4051.0,2216.0,2132.0,3410020.0,
2485.0,4052.0,2241.0,2134.0,3410023.0,
2484.0,4051.0,2265.0,2133.0,3410027.0,
2485.0,4052.0,2291.0,2136.0,3410031.0,
2489.0,4052.0,2309.0,2135.0,3410035.0,
2489.0,4051.0,2324.0,2135.0,3410039.0,
2486.0,4052.0,2337.0,2137.0,3410043.0,
2483.0,4051.0,2351.0,2136.0,3410047.0,
2485.0,4053.0,2360.0,2136.0,3410051.0,
2488.0,4051.0,2368.0,2135.0,3410054.0,
2490.0,4053.0,2372.0,2136.0,3410058.0,
2487.0,4051.0,2373.0,2132.0,3410062.0,
2484.0,4051.0,2376.0,2134.0,3410066.0,
2484.0,4051.0,2374.0,2132.0,3410070.0,
2488.0,4051.0,2370.0,2129.0,3410073.0,
2489.0,4051.0,2366.0,2126.0,3410077.0,
2488.0,4051.0,2356.0,2128.0,3410081.0,
2485.0,4053.0,2350.0,2125.0,3410085.0,
2484.0,4050.0,2337.0,2121.0,3410089.0,
2486.0,4052.0,2322.0,2122.0,3410093.0,
2490.0,4052.0,2311.0,2118.0,3410096.0,
2488.0,4050.0,2296.0,2116.0,3410100.0,
2484.0,4052.0,2281.0,2116.0,3410104.0,
2483.0,4052.0,2267.0,2115.0,3410108.0,
2487.0,4051.0,2253.0,2111.0,3410112.0,
2490.0,4050.0,2238.0,2109.0,3410116.0,
2489.0,4052.0,2223.0,2109.0,3410120.0,
2485.0,4052.0,2206.0,2104.0,3410124.0,
2483.0,4053.0,2188.0,2104.0,3410128.0,
2486.0,4051.0,2173.0,2102.0,3410131.0,
2489.0,4052.0,2155.0,2099.0,3410135.0,
2488.0,4054.0,2139.0,2097.0,3410139.0,
2485.0,4051.0,2125.0,2093.0,3410143.0,
2484.0,4053.0,2110.0,2091.0,3410147.0,
2484.0,4052.0,2096.0,2089.0,3410151.0,
2488.0,4051.0,2084.0,2087.0,3410155.0,
2488.0,4051.0,2069.0,2084.0,3410158.0,
2486.0,4052.0,2057.0,2083.0,3410162.0,
2484.0,4052.0,2047.0,2078.0,3410166.0,
2485.0,4051.0,2037.0,2076.0,3410170.0,
2487.0,4052.0,2028.0,2073.0,3410174.0,
2489.0,4054.0,2017.0,2069.0,3410178.0,
2487.0,4054.0,2010.0,2068.0,3410182.0,
2483.0,4050.0,2000.0,2064.0,3410186.0,
2485.0,4053.0,1994.0,2062.0,3410189.0,
2487.0,4050.0,1986.0,2059.0,3410193.0,
2490.0,4051.0,1977.0,2057.0,3410197.0,
2488.0,4052.0,1972.0,2055.0,3410201.0,
2484.0,4052.0,1962.0,2052.0,3410205.0,
2484.0,4049.0,1957.0,2048.0,3410209.0,
2491.0,4051.0,1952.0,2047.0,3410213.0,
2489.0,4052.0,1948.0,2047.0,3410217.0,
2488.0,4050.0,1943.0,2042.0,3410221.0,
2485.0,4051.0,1938.0,2043.0,3410225.0,
2483.0,4050.0,1932.0,2038.0,3410228.0,
2486.0,4051.0,1928.0,2040.0,3410232.0,
2490.0,4052.0,1923.0,2038.0,3410236.0,
2490.0,4051.0,1916.0,2038.0,3410240.0,
2486.0,4052.0,1910.0,2040.0,3410244.0,
2483.0,4050.0,1905.0,2037.0,3410248.0,
2486.0,4053.0,1904.0,2040.0,3410251.0,
2488.0,4052.0,1901.0,2039.0,3410255.0,
2489.0,4051.0,1894.0,2038.0,3410259.0,
2486.0,4053.0,1892.0,2040.0,3410263.0,
2483.0,4052.0,1885.0,2039.0,3410267.0,
2485.0,4052.0,1884.0,2040.0,3410271.0,
2488.0,4051.0,1881.0,2043.0,3410275.0,
2488.0,4052.0,1879.0,2042.0,3410279.0,
2486.0,4051.0,1877.0,2041.0,3410283.0,
2483.0,4053.0,1878.0,2042.0,3410287.0,
2485.0,4050.0,1879.0,2043.0,3410291.0,
2488.0,4052.0,1878.0,2045.0,3410295.0,
2489.0,4051.0,1884.0,2042.0,3410299.0,
2486.0,4052.0,1887.0,2042.0,3410303.0,
2483.0,4051.0,1894.0,2041.0,3410307.0,
2485.0,4051.0,1900.0,2042.0,3410310.0,
2488.0,4053.0,1905.0,2045.0,3410314.0,
2490.0,4050.0,1910.0,2043.0,3410318.0,
2487.0,4052.0,1917.0,2044.0,3410322.0,
2483.0,4050.0,1923.0,2041.0,3410326.0,
2484.0,4052.0,1926.0,2044.0,3410329.0,
2488.0,4050.0,1934.0,2042.0,3410333.0,
2488.0,4051.0,1941.0,2040.0,3410337.0,
2488.0,4051.0,1945.0,2040.0,3410341.0,
2483.0,4051.0,1949.0,2038.0,3410345.0,
2484.0,4053.0,1951.0,2037.0,3410349.0,
2487.0,4050.0,1955.0,2038.0,3410353.0,
2490.0,4052.0,1955.0,2035.0,3410357.0,
2488.0,4051.0,1956.0,2035.0,3410361.0,
2485.0,4053.0,1959.0,2035.0,3410365.0,
2483.0,4051.0,1959.0,2030.0,3410369.0,
2487.0,4051.0,1961.0,2032.0,3410372.0,
2490.0,4052.0,1961.0,2032.0,3410376.0,
2487.0,4052.0,1959.0,2028.0,3410380.0,
2484.0,4051.0,1957.0,2029.0,3410384.0,
2483.0,4051.0,1953.0,2024.0,3410388.0,
2487.0,4053.0,1953.0,2028.0,3410392.0,
2489.0,4051.0,1952.0,2024.0,3410396.0,
2488.0,4052.0,1947.0,2025.0,3410400.0,
2485.0,4049.0,1944.0,2023.0,3410403.0,
2484.0,4050.0,1942.0,2023.0,3410407.0,
2485.0,4051.0,1941.0,2020.0,3410411.0,
2488.0,4052.0,1936.0,2018.0,3410415.0,
2489.0,4051.0,1932.0,2017.0,3410419.0,
2485.0,4051.0,1928.0,2016.0,3410423.0,
2484.0,4050.0,1923.0,2016.0,3410427.0,
2486.0,4053.0,1924.0,2015.0,3410430.0,
2489.0,4051.0,1922.0,2012.0,3410434.0,
2489.0,4052.0,1921.0,2011.0,3410438.0,
2487.0,4051.0,1920.0,2010.0,3410442.0,
2484.0,4051.0,1919.0,2010.0,3410446.0,
2483.0,4050.0,1919.0,2009.0,3410450.0,
2488.0,4051.0,1915.0,2009.0,3410454.0,
2489.0,4051.0,1911.0,2009.0,3410458.0,
2485.0,4050.0,1911.0,2009.0,3410462.0,
2484.0,4050.0,1903.0,2009.0,3410466.0,
2485.0,4052.0,1900.0,2008.0,3410470.0,
2489.0,4051.0,1893.0,2006.0,3410474.0,
2489.0,4052.0,1890.0,2006.0,3410478.0,
2486.0,4051.0,1883.0,2005.0,3410482.0,
2485.0,4051.0,1879.0,2005.0,3410486.0,
2484.0,4050.0,1873.0,2002.0,3410490.0,
2489.0,4052.0,1871.0,2004.0,3410493.0,
2489.0,4051.0,1863.0,2005.0,3410497.0,
2486.0,4052.0,1859.0,2004.0,3410501.0,
2484.0,4051.0,1856.0,2000.0,3410505.0,
2484.0,4053.0,1849.0,2002.0,3410509.0,
2487.0,4052.0,1844.0,2002.0,3410513.0,
2488.0,4051.0,1840.0,1999.0,3410517.0,
2486.0,4050.0,1841.0,2002.0,3410521.0,
2484.0,4052.0,1837.0,2001.0,3410525.0,
2484.0,4052.0,1838.0,2003.0,3410529.0,
2489.0,4053.0,1837.0,2002.0,3410534.0,
2488.0,4051.0,1837.0,1998.0,3410538.0,
2486.0,4053.0,1837.0,1998.0,3410542.0,
2483.0,4050.0,1839.0,1998.0,3410546.0,
2484.0,4052.0,1845.0,2000.0,3410550.0,
2487.0,4051.0,1850.0,1997.0,3410554.0,
2488.0,4050.0,1853.0,1995.0,3410558.0,
2486.0,4051.0,1859.0,1999.0,3410562.0,
2483.0,4052.0,1862.0,1998.0,3410566.0,
2484.0,4051.0,1864.0,1999.0,3410570.0,
2488.0,4051.0,1865.0,1997.0,3410574.0,
2489.0,4053.0,1865.0,1999.0,3410578.0,
2485.0,4051.0,1866.0,1995.0,3410582.0,
2484.0,4053.0,1868.0,1997.0,3410586.0,
2484.0,4051.0,1866.0,1997.0,3410590.0,
2488.0,4052.0,1862.0,1998.0,3410594.0,
2488.0,4051.0,1862.0,1995.0,3410598.0,
2486.0,4053.0,1859.0,1997.0,3410602.0,
2482.0,4051.0,1865.0,1994.0,3410606.0,
2484.0,4051.0,1864.0,1999.0,3410609.0,
2488.0,4050.0,1870.0,1994.0,3410613.0,
2490.0,4050.0,1873.0,1995.0,3410617.0,
2486.0,4052.0,1877.0,1997.0,3410621.0,
2484.0,4051.0,1880.0,1995.0,3410625.0,
2484.0,4052.0,1881.0,1995.0,3410629.0,
2487.0,4052.0,1882.0,1996.0,3410632.0,
2489.0,4051.0,1882.0,1997.0,3410636.0,
2487.0,4051.0,1882.0,1995.0,3410640.0,
2484.0,4051.0,1882.0,1994.0,3410645.0,
2484.0,4053.0,1878.0,1996.0,3410649.0,
2486.0,4051.0,1875.0,1993.0,3410652.0,
2489.0,4052.0,1876.0,1997.0,3410656.0,
2487.0,4053.0,1872.0,1998.0,3410660.0,
2484.0,4052.0,1871.0,1996.0,3410664.0,
2484.0,4052.0,1870.0,1999.0,3410668.0,
2487.0,4051.0,1867.0,1997.0,3410672.0,
2489.0,4052.0,1865.0,1999.0,3410675.0,
2488.0,4050.0,1863.0,2000.0,3410679.0,
2484.0,4051.0,1865.0,2004.0,3410683.0,
2484.0,4053.0,1864.0,2008.0,3410687.0,
2485.0,4051.0,1865.0,2009.0,3410691.0,
2489.0,4051.0,1864.0,2015.0,3410695.0,
2488.0,4051.0,1865.0,2016.0,3410698.0,
2487.0,4052.0,1870.0,2022.0,3410702.0,
2483.0,4052.0,1870.0,2027.0,3410706.0,
2485.0,4051.0,1878.0,2029.0,3410710.0,
2488.0,4051.0,1881.0,2040.0,3410714.0,
2488.0,4052.0,1883.0,2042.0,3410718.0,
2487.0,4052.0,1888.0,2049.0,3410721.0,
2484.0,4052.0,1891.0,2056.0,3410725.0,
2487.0,4051.0,1896.0,2061.0,3410729.0,
2486.0,4052.0,1899.0,2066.0,3410733.0,
2489.0,4050.0,1909.0,2072.0,3410737.0,
2487.0,4052.0,1918.0,2080.0,3410741.0,
2484.0,4050.0,1931.0,2084.0,3410744.0,
2483.0,4051.0,1948.0,2089.0,3410748.0,
2487.0,4052.0,1961.0,2097.0,3410752.0,
2491.0,4050.0,1981.0,2100.0,3410756.0,
2487.0,4053.0,2004.0,2106.0,3410760.0,
2484.0,4051.0,2028.0,2109.0,3410764.0,
2484.0,4053.0,2048.0,2112.0,3410768.0,
2487.0,4051.0,2075.0,2117.0,3410771.0,
2489.0,4052.0,2099.0,2120.0,3410776.0,
2487.0,4051.0,2122.0,2121.0,3410779.0,
2485.0,4052.0,2147.0,2126.0,3410783.0,
2484.0,4051.0,2175.0,2130.0,3410787.0,
2486.0,4051.0,2196.0,2130.0,3410791.0,
2489.0,4052.0,2221.0,2132.0,3410795.0,
2488.0,4051.0,2243.0,2132.0,3410799.0,
2484.0,4051.0,2264.0,2133.0,3410803.0,
2483.0,4051.0,2285.0,2134.0,3410806.0,
2485.0,4052.0,2302.0,2134.0,3410810.0,
2488.0,4049.0,2317.0,2133.0,3410814.0,
2489.0,4053.0,2328.0,2136.0,3410818.0,
2485.0,4050.0,2339.0,2133.0,3410822.0,
2483.0,4052.0,2346.0,2134.0,3410825.0,
2484.0,4050.0,2357.0,2135.0,3410829.0,
2488.0,4053.0,2361.0,2134.0,3410833.0,
2489.0,4051.0,2365.0,2130.0,3410837.0,
2486.0,4052.0,2365.0,2131.0,3410841.0,
2482.0,4051.0,2370.0,2129.0,3410844.0,
2484.0,4050.0,2372.0,2128.0,3410848.0,
2488.0,4051.0,2368.0,2126.0,3410852.0,
2489.0,4052.0,2362.0,2127.0,3410856.0,
2488.0,4051.0,2357.0,2127.0,3410860.0,
2484.0,4053.0,2350.0,2125.0,3410864.0,
2485.0,4051.0,2340.0,2121.0,3410867.0,
2487.0,4051.0,2332.0,2120.0,3410871.0,
2490.0,4051.0,2324.0,2117.0,3410875.0,
2486.0,4053.0,2311.0,2117.0,3410879.0,
2484.0,4050.0,2298.0,2114.0,3410883.0,
2485.0,4052.0,2283.0,2116.0,3410887.0,
2486.0,4052.0,2268.0,2112.0,3410890.0,
2490.0,4051.0,2254.0,2110.0,3410894.0,
2485.0,4052.0,2238.0,2105.0,3410898.0,
2485.0,4053.0,2219.0,2106.0,3410902.0,
2483.0,4052.0,2203.0,2104.0,3410906.0,
2485.0,4052.0,2185.0,2103.0,3410910.0,
2489.0,4050.0,2172.0,2100.0,3410914.0,
2489.0,4051.0,2156.0,2100.0,3410917.0,
2486.0,4052.0,2141.0,2097.0,3410921.0,
2483.0,4050.0,2129.0,2092.0,3410925.0,
2485.0,4053.0,2111.0,2092.0,3410929.0,
2489.0,4050.0,2101.0,2087.0,3410933.0,
2490.0,4052.0,2086.0,2087.0,3410937.0,
2486.0,4051.0,2073.0,2082.0,3410941.0,
2484.0,4053.0,2056.0,2082.0,3410944.0,
2484.0,4051.0,2049.0,2076.0,3410948.0,
2488.0,4049.0,2036.0,2075.0,3410952.0,
2490.0,4051.0,2026.0,2071.0,3410956.0,
2486.0,4051.0,2019.0,2067.0,3410960.0,
2484.0,4052.0,2010.0,2066.0,3410964.0,
2484.0,4050.0,1999.0,2061.0,3410968.0,
2487.0,4052.0,1994.0,2063.0,3410971.0,
2488.0,4053.0,1984.0,2060.0,3410975.0,
2488.0,4051.0,1976.0,2059.0,3410979.0,
2484.0,4051.0,1970.0,2055.0,3410983.0,
2484.0,4052.0,1962.0,2056.0,3410987.0,
2486.0,4051.0,1956.0,2054.0,3410991.0,
2489.0,4052.0,1949.0,2056.0,3410994.0,
2488.0,4052.0,1944.0,2053.0,3410998.0,
2484.0,4050.0,1940.0,2049.0,3411002.0,
2483.0,4052.0,1934.0,2053.0,3411006.0,
2485.0,4052.0,1930.0,2049.0,3411010.0,
2489.0,4053.0,1925.0,2052.0,3411013.0,
2488.0,4051.0,1920.0,2049.0,3411017.0,
2485.0,4053.0,1918.0,2050.0,3411021.0,
2484.0,4052.0,1915.0,2049.0,3411025.0,
2484.0,4051.0,1916.0,2046.0,3411029.0,
2488.0,4052.0,1913.0,2048.0,3411033.0,
2489.0,4052.0,1914.0,2046.0,3411036.0,
2486.0,4052.0,1910.0,2047.0,3411040.0,
2483.0,4051.0,1913.0,2047.0,3411044.0,
2485.0,4050.0,1910.0,2046.0,3411048.0,
2487.0,4051.0,1910.0,2046.0,3411052.0,
2489.0,4051.0,1914.0,2043.0,3411056.0,
2488.0,4052.0,1916.0,2044.0,3411059.0,
2483.0,4052.0,1923.0,2044.0,3411063.0,
2483.0,4052.0,1927.0,2042.0,3411067.0,
2486.0,4051.0,1931.0,2042.0,3411071.0,
2489.0,4053.0,1935.0,2042.0,3411075.0,
2488.0,4050.0,1938.0,2040.0,3411078.0,
2483.0,4052.0,1943.0,2040.0,3411082.0,
2484.0,4051.0,1948.0,2039.0,3411086.0,
2486.0,4053.0,1952.0,2040.0,3411090.0,
2488.0,4052.0,1955.0,2037.0,3411094.0,
2488.0,4052.0,1959.0,2040.0,3411098.0,
2485.0,4050.0,1965.0,2038.0,3411101.0,
2483.0,4053.0,1966.0,2037.0,3411105.0,
2485.0,4052.0,1972.0,2037.0,3411109.0,
2489.0,4051.0,1976.0,2035.0,3411113.0,
2488.0,4053.0,1981.0,2037.0,3411117.0,
2486.0,4051.0,1986.0,2035.0,3411121.0,
2484.0,4052.0,1989.0,2036.0,3411124.0,
2484.0,4050.0,1995.0,2031.0,3411128.0,
2487.0,4051.0,1998.0,2031.0,3411132.0,
2489.0,4053.0,2000.0,2028.0,3411136.0,
2485.0,4052.0,2004.0,2027.0,3411140.0,
2484.0,4051.0,2003.0,2026.0,3411143.0,
2484.0,4052.0,2005.0,2026.0,3411147.0,
2488.0,4052.0,2002.0,2022.0,3411151.0,
2490.0,4053.0,2005.0,2021.0,3411155.0,
2487.0,4052.0,2001.0,2022.0,3411159.0,
2484.0,4053.0,2003.0,2022.0,3411163.0,
2483.0,4082.0,2000.0,2019.0,3411166.0,
2487.0,4052.0,2001.0,2018.0,3411170.0,
2486.0,4051.0,1997.0,2017.0,3411174.0,
2488.0,4052.0,1992.0,2016.0,3411178.0,
2484.0,4051.0,1991.0,2016.0,3411182.0,
2483.0,4052.0,1986.0,2018.0,3411186.0,
2486.0,4050.0,1982.0,2018.0,3411190.0,
2488.0,4051.0,1977.0,2016.0,3411194.0,
2488.0,4051.0,1974.0,2015.0,3411197.0,
2486.0,4051.0,1969.0,2015.0,3411201.0,
2482.0,4052.0,1963.0,2015.0,3411205.0,
2485.0,4052.0,1957.0,2012.0,3411209.0,
2487.0,4052.0,1956.0,2014.0,3411213.0,
2490.0,4051.0,1949.0,2009.0,3411216.0,
2486.0,4053.0,1945.0,2009.0,3411220.0,
2484.0,4053.0,1940.0,2009.0,3411224.0,
2484.0,4052.0,1934.0,2007.0,3411228.0,
2488.0,4053.0,1927.0,2007.0,3411232.0,
2490.0,4051.0,1924.0,2007.0,3411236.0,
2487.0,4052.0,1919.0,2007.0,3411240.0,
2484.0,4052.0,1914.0,2005.0,3411243.0,
2485.0,4052.0,1910.0,2007.0,3411247.0,
2488.0,4052.0,1912.0,2006.0,3411251.0,
2491.0,4052.0,1906.0,2006.0,3411255.0,
2488.0,4051.0,1902.0,2003.0,3411259.0,
2484.0,4052.0,1897.0,2003.0,3411263.0,
2482.0,4052.0,1895.0,2002.0,3411267.0,
2487.0,4050.0,1889.0,2003.0,3411270.0,
2488.0,4051.0,1887.0,2002.0,3411274.0,
2488.0,4052.0,1881.0,2000.0,3411278.0,
2485.0,4053.0,1882.0,2002.0,3411282.0,
2484.0,4051.0,1877.0,1999.0,3411286.0,
2485.0,4052.0,1873.0,2002.0,3411290.0,
2489.0,4052.0,1872.0,2001.0,3411293.0,
2489.0,4052.0,1874.0,1999.0,3411297.0,
2486.0,4053.0,1873.0,2004.0,3411301.0,
2484.0,4051.0,1875.0,2000.0,3411305.0,
2486.0,4052.0,1872.0,2004.0,3411309.0,
2490.0,4049.0,1874.0,2000.0,3411312.0,
2489.0,4052.0,1874.0,2004.0,3411316.0,
2487.0,4052.0,1869.0,2004.0,3411320.0,
2483.0,4051.0,1872.0,2003.0,3411324.0,
2485.0,4052.0,1874.0,2005.0,3411328.0,
2487.0,4051.0,1871.0,2006.0,3411331.0,
2490.0,4053.0,1872.0,2003.0,3411335.0,
2487.0,4052.0,1869.0,2004.0,3411339.0,
2484.0,4051.0,1870.0,2004.0,3411343.0,
2484.0,4053.0,1869.0,2006.0,3411347.0,
2486.0,4051.0,1871.0,2003.0,3411351.0,
2490.0,4054.0,1869.0,2005.0,3411354.0,
2487.0,4053.0,1870.0,2007.0,3411358.0,
2484.0,4052.0,1871.0,2007.0,3411362.0,
2483.0,4051.0,1873.0,2003.0,3411366.0,
2486.0,4052.0,1874.0,2004.0,3411370.0,
2489.0,4051.0,1882.0,2004.0,3411374.0,
2487.0,4051.0,1882.0,2004.0,3411378.0,
2485.0,4051.0,1889.0,2001.0,3411381.0,
2483.0,4051.0,1894.0,2005.0,3411385.0,
2486.0,4051.0,1899.0,2005.0,3411389.0,
2488.0,4051.0,1900.0,2003.0,3411393.0,
2489.0,4052.0,1903.0,2003.0,3411397.0,
2485.0,4050.0,1905.0,2002.0,3411401.0,
2481.0,4051.0,1910.0,2002.0,3411404.0,
2485.0,4053.0,1912.0,2001.0,3411408.0,
2488.0,4051.0,1914.0,1999.0,3411412.0,
2489.0,4052.0,1919.0,1999.0,3411416.0,
2485.0,4051.0,1924.0,1997.0,3411420.0,
2482.0,4052.0,1923.0,1999.0,3411424.0,
2484.0,4050.0,1922.0,1996.0,3411428.0,
2488.0,4052.0,1922.0,1999.0,3411431.0,
2489.0,4052.0,1920.0,1996.0,3411435.0,
2486.0,4051.0,1919.0,1998.0,3411439.0,
2483.0,4052.0,1913.0,1999.0,3411443.0,
2484.0,4051.0,1912.0,1997.0,3411447.0,
2488.0,4052.0,1909.0,1998.0,3411451.0,
2490.0,4051.0,1914.0,1996.0,3411454.0,
2487.0,4052.0,1908.0,1999.0,3411458.0,
2484.0,4051.0,1907.0,1999.0,3411462.0,
2483.0,4051.0,1905.0,1997.0,3411466.0,
2487.0,4053.0,1903.0,2002.0,3411470.0,
2489.0,4051.0,1899.0,2004.0,3411474.0,
2487.0,4052.0,1897.0,2004.0,3411478.0,
2484.0,4050.0,1894.0,2002.0,3411481.0,
2484.0,4051.0,1893.0,2004.0,3411485.0,
2485.0,4053.0,1889.0,2007.0,3411489.0,
2489.0,4050.0,1887.0,2008.0,3411493.0,
2488.0,4052.0,1889.0,2011.0,3411497.0,
2485.0,4050.0,1887.0,2010.0,3411501.0,
2483.0,4054.0,1889.0,2017.0,3411504.0,
2486.0,4052.0,1887.0,2019.0,3411508.0,
2489.0,4051.0,1889.0,2022.0,3411512.0,
2489.0,4053.0,1887.0,2025.0,3411516.0,
2487.0,4050.0,1892.0,2032.0,3411520.0,
2483.0,4053.0,1890.0,2037.0,3411523.0,
2484.0,4051.0,1893.0,2041.0,3411527.0,
2488.0,4052.0,1893.0,2045.0,3411531.0,
2488.0,4053.0,1894.0,2052.0,3411535.0,
2487.0,4051.0,1899.0,2056.0,3411539.0,
2484.0,4053.0,1904.0,2064.0,3411543.0,
2484.0,4050.0,1911.0,2067.0,3411547.0,
2488.0,4052.0,1920.0,2072.0,3411550.0,
2489.0,4052.0,1932.0,2077.0,3411554.0,
2488.0,4051.0,1947.0,2084.0,3411558.0,
2484.0,4051.0,1968.0,2087.0,3411562.0,
2484.0,4051.0,1989.0,2092.0,3411566.0,
2487.0,4053.0,2010.0,2096.0,3411570.0,
2489.0,4052.0,2033.0,2099.0,3411574.0,
2488.0,4052.0,2058.0,2105.0,3411577.0,
2483.0,4054.0,2083.0,2109.0,3411581.0,
2484.0,4051.0,2115.0,2110.0,3411586.0,
2487.0,4052.0,2139.0,2117.0,3411590.0,
2489.0,4050.0,2168.0,2118.0,3411593.0,
2488.0,4052.0,2192.0,2123.0,3411597.0,
2484.0,4051.0,2219.0,2124.0,3411601.0,
2484.0,4053.0,2243.0,2126.0,3411605.0,
2486.0,4050.0,2264.0,2129.0,3411609.0,
2489.0,4052.0,2286.0,2133.0,3411613.0,
2489.0,4049.0,2310.0,2133.0,3411617.0,
2485.0,4052.0,2324.0,2139.0,3411621.0,
2483.0,4051.0,2345.0,2138.0,3411624.0,
2486.0,4052.0,2362.0,2137.0,3411628.0,
2487.0,4051.0,2379.0,2137.0,3411632.0,
2490.0,4052.0,2390.0,2139.0,3411636.0,
2485.0,4052.0,2400.0,2136.0,3411640.0,
2483.0,4054.0,2411.0,2140.0,3411644.0,
2485.0,4053.0,2412.0,2137.0,3411648.0,
2490.0,4053.0,2417.0,2137.0,3411651.0,
2490.0,4051.0,2415.0,2135.0,3411655.0,
2486.0,4051.0,2415.0,2134.0,3411659.0,
2482.0,4051.0,2410.0,2133.0,3411663.0,
2485.0,4052.0,2405.0,2134.0,3411667.0,
2487.0,4053.0,2396.0,2131.0,3411671.0,
2490.0,4051.0,2387.0,2129.0,3411675.0,
2486.0,4053.0,2379.0,2131.0,3411679.0,
2483.0,4051.0,2368.0,2125.0,3411683.0,
2485.0,4051.0,2353.0,2124.0,3411687.0,
2489.0,4050.0,2342.0,2123.0,3411691.0,
2489.0,4052.0,2328.0,2121.0,3411695.0,
2484.0,4051.0,2316.0,2117.0,3411699.0,
2483.0,4053.0,2299.0,2115.0,3411703.0,
2485.0,4051.0,2284.0,2113.0,3411707.0,
2487.0,4052.0,2267.0,2112.0,3411710.0,
2488.0,4051.0,2251.0,2107.0,3411714.0,
2487.0,4051.0,2237.0,2102.0,3411718.0,
2484.0,4052.0,2224.0,2103.0,3411722.0,
2483.0,4051.0,2211.0,2099.0,3411726.0,
2487.0,4053.0,2197.0,2097.0,3411730.0,
2490.0,4050.0,2185.0,2094.0,3411733.0,
2488.0,4053.0,2173.0,2092.0,3411737.0,
2485.0,4051.0,2161.0,2088.0,3411741.0,
2482.0,4052.0,2149.0,2082.0,3411745.0,
2485.0,4053.0,2138.0,2079.0,3411749.0,
2489.0,4050.0,2121.0,2076.0,3411753.0,
2487.0,4052.0,2110.0,2075.0,3411757.0,
2485.0,4051.0,2096.0,2071.0,3411760.0,
2483.0,4051.0,2085.0,2069.0,3411764.0,
2487.0,4051.0,2077.0,2065.0,3411768.0,
2489.0,4051.0,2067.0,2062.0,3411772.0,
2489.0,4052.0,2055.0,2061.0,3411776.0,
2484.0,4051.0,2045.0,2060.0,3411780.0,
2484.0,4051.0,2037.0,2057.0,3411784.0,
2484.0,4051.0,2028.0,2055.0,3411788.0,
2489.0,4052.0,2018.0,2054.0,3411792.0,
2489.0,4051.0,2015.0,2052.0,3411796.0,
2485.0,4052.0,2009.0,2051.0,3411799.0,
2483.0,4051.0,2000.0,2047.0,3411803.0,
2484.0,4051.0,1994.0,2050.0,3411807.0,
2489.0,4052.0,1986.0,2050.0,3411811.0,
2490.0,4050.0,1978.0,2051.0,3411815.0,
2486.0,4053.0,1978.0,2049.0,3411819.0,
2484.0,4050.0,1972.0,2049.0,3411823.0,
2486.0,4051.0,1968.0,2048.0,3411827.0,
2489.0,4051.0,1964.0,2046.0,3411830.0,
2489.0,4052.0,1962.0,2047.0,3411834.0,
2485.0,4051.0,1959.0,2046.0,3411838.0,
2483.0,4051.0,1957.0,2045.0,3411842.0,
2484.0,4052.0,1961.0,2048.0,3411846.0,
2487.0,4051.0,1960.0,2048.0,3411850.0,
2489.0,4052.0,1963.0,2049.0,3411853.0,
2488.0,4052.0,1965.0,2049.0,3411857.0,
2483.0,4053.0,1968.0,2048.0,3411861.0,
2484.0,4051.0,1968.0,2048.0,3411865.0,
2486.0,4051.0,1971.0,2048.0,3411869.0,
2489.0,4051.0,1974.0,2048.0,3411872.0,
2488.0,4053.0,1979.0,2049.0,3411877.0,
2485.0,4052.0,1984.0,2047.0,3411880.0,
2484.0,4050.0,1990.0,2049.0,3411884.0,
2486.0,4052.0,1992.0,2049.0,3411888.0,
2489.0,4052.0,1997.0,2046.0,3411892.0,
2490.0,4052.0,1999.0,2047.0,3411896.0,
2487.0,4052.0,2004.0,2047.0,3411899.0,
2484.0,4051.0,2008.0,2047.0,3411903.0,
2485.0,4051.0,2011.0,2048.0,3411907.0,
2489.0,4051.0,2014.0,2047.0,3411911.0,
2489.0,4052.0,2017.0,2047.0,3411915.0,
2485.0,4050.0,2021.0,2045.0,3411919.0,
2484.0,4053.0,2025.0,2042.0,3411922.0,
2484.0,4052.0,2029.0,2042.0,3411926.0,
2486.0,4052.0,2032.0,2043.0,3411930.0,
2487.0,4050.0,2033.0,2037.0,3411934.0,
2486.0,4051.0,2035.0,2039.0,3411938.0,
2483.0,4052.0,2037.0,2037.0,3411942.0,
2483.0,4050.0,2037.0,2034.0,3411946.0,
2488.0,4051.0,2034.0,2034.0,3411950.0,
2489.0,4051.0,2036.0,2034.0,3411954.0,
2487.0,4051.0,2034.0,2031.0,3411958.0,
2484.0,4051.0,2035.0,2030.0,3411961.0,
2484.0,4051.0,2034.0,2026.0,3411965.0,
2483.0,4053.0,2037.0,2026.0,3411969.0,
2489.0,4051.0,2033.0,2022.0,3411973.0,
2488.0,4052.0,2030.0,2022.0,3411977.0,
2485.0,4052.0,2031.0,2022.0,3411980.0,
2483.0,4050.0,2026.0,2020.0,3411984.0,
2486.0,4052.0,2018.0,2017.0,3411988.0,
2489.0,4051.0,2014.0,2014.0,3411992.0,
2489.0,4052.0,2011.0,2017.0,3411996.0,
2486.0,4050.0,2006.0,2011.0,3412000.0,
2484.0,4052.0,2004.0,2012.0,3412003.0,
2485.0,4053.0,1996.0,2012.0,3412007.0,
2490.0,4050.0,1993.0,2010.0,3412011.0,
2489.0,4051.0,1987.0,2010.0,3412015.0,
2485.0,4051.0,1982.0,2009.0,3412019.0,
2482.0,4051.0,1974.0,2010.0,3412022.0,
2485.0,4052.0,1966.0,2009.0,3412026.0,
2488.0,4051.0,1958.0,2007.0,3412030.0,
2489.0,4052.0,1952.0,2009.0,3412034.0,
2487.0,4052.0,1944.0,2009.0,3412038.0,
2483.0,4052.0,1938.0,2008.0,3412041.0,
2484.0,4052.0,1931.0,2007.0,3412045.0,
2489.0,4050.0,1929.0,2006.0,3412049.0,
2489.0,4051.0,1925.0,2005.0,3412053.0,
2487.0,4052.0,1919.0,2008.0,3412057.0,
2484.0,4050.0,1918.0,2006.0,3412061.0,
2483.0,4051.0,1914.0,2005.0,3412064.0,
2485.0,4052.0,1908.0,2004.0,3412068.0,
2489.0,4051.0,1907.0,2007.0,3412072.0,
2489.0,4052.0,1905.0,2003.0,3412076.0,
2484.0,4052.0,1903.0,2006.0,3412080.0,
2483.0,4050.0,1905.0,2005.0,3412084.0,
2486.0,4051.0,1903.0,2003.0,3412088.0,
2489.0,4052.0,1899.0,2004.0,3412091.0,
2488.0,4052.0,1899.0,2004.0,3412095.0,
2486.0,4051.0,1901.0,2003.0,3412099.0,
2483.0,4052.0,1901.0,2004.0,3412103.0,
2484.0,4052.0,1902.0,2003.0,3412107.0,
2489.0,4053.0,1900.0,2006.0,3412110.0,
2489.0,4051.0,1904.0,2007.0,3412114.0,
2486.0,4050.0,1904.0,2003.0,3412118.0,
2484.0,4051.0,1905.0,2004.0,3412122.0,
2485.0,4050.0,1901.0,2003.0,3412126.0,
2488.0,4052.0,1901.0,2005.0,3412130.0,
2490.0,4050.0,1902.0,2004.0,3412134.0,
2487.0,4053.0,1903.0,2005.0,3412137.0,
2483.0,4052.0,1902.0,2006.0,3412141.0,
2485.0,4051.0,1904.0,2002.0,3412145.0,
2488.0,4050.0,1903.0,2002.0,3412149.0,
2489.0,4052.0,1901.0,2004.0,3412153.0,
2488.0,4051.0,1902.0,2005.0,3412157.0,
2485.0,4053.0,1903.0,2006.0,3412160.0,
2483.0,4050.0,1905.0,2005.0,3412164.0,
2487.0,4052.0,1906.0,2005.0,3412168.0,
2489.0,4051.0,1906.0,2006.0,3412172.0,
2487.0,4053.0,1907.0,2008.0,3412176.0,
2484.0,4051.0,1910.0,2005.0,3412180.0,
2484.0,4053.0,1910.0,2004.0,3412183.0,
2486.0,4052.0,1913.0,2006.0,3412187.0,
2488.0,4054.0,1914.0,2007.0,3412191.0,
2488.0,4050.0,1917.0,2006.0,3412195.0,
2486.0,4052.0,1917.0,2008.0,3412199.0,
2482.0,4052.0,1919.0,2006.0,3412203.0,
2483.0,4052.0,1921.0,2007.0,3412206.0,
2488.0,4051.0,1927.0,2006.0,3412210.0,
2491.0,4052.0,1932.0,2007.0,3412214.0,
2486.0,4051.0,1936.0,2006.0,3412218.0,
2481.0,4052.0,1941.0,2004.0,3412222.0,
2484.0,4050.0,1944.0,2005.0,3412226.0,
2487.0,4053.0,1947.0,2010.0,3412229.0,
2488.0,4051.0,1950.0,2008.0,3412233.0,
2485.0,4052.0,1955.0,2009.0,3412237.0,
2483.0,4051.0,1959.0,2007.0,3412241.0,
2482.0,4052.0,1960.0,2007.0,3412245.0,
2486.0,4051.0,1962.0,2005.0,3412248.0,
2489.0,4051.0,1963.0,2006.0,3412252.0,
2487.0,4051.0,1965.0,2003.0,3412256.0,
2482.0,4052.0,1966.0,2005.0,3412260.0,
2482.0,4051.0,1965.0,2003.0,3412264.0,
2485.0,4052.0,1965.0,2003.0,3412267.0,
2487.0,4052.0,1962.0,2002.0,3412271.0,
2486.0,4050.0,1965.0,2000.0,3412275.0,
2484.0,4050.0,1961.0,2004.0,3412279.0,
2481.0,4051.0,1962.0,1999.0,3412283.0,
2485.0,4052.0,1962.0,1998.0,3412287.0,
2487.0,4051.0,1959.0,1998.0,3412291.0,
2487.0,4052.0,1956.0,2000.0,3412294.0,
2484.0,4052.0,1956.0,1998.0,3412298.0,
2482.0,4052.0,1957.0,1999.0,3412302.0,
2484.0,4052.0,1954.0,2004.0,3412306.0,
2486.0,4051.0,1953.0,2004.0,3412310.0,
2488.0,4053.0,1953.0,2005.0,3412314.0,
2485.0,4051.0,1953.0,2008.0,3412318.0,
2483.0,4053.0,1952.0,2012.0,3412321.0,
2483.0,4051.0,1948.0,2014.0,3412325.0,
2487.0,4051.0,1943.0,2015.0,3412329.0,
2488.0,4052.0,1942.0,2018.0,3412333.0,
2485.0,4050.0,1938.0,2020.0,3412337.0,
2483.0,4052.0,1937.0,2024.0,3412341.0,
2482.0,4051.0,1936.0,2029.0,3412344.0,
2486.0,4053.0,1936.0,2038.0,3412348.0,
2489.0,4051.0,1940.0,2041.0,3412352.0,
2488.0,4051.0,1939.0,2047.0,3412356.0,
2484.0,4053.0,1943.0,2053.0,3412360.0,
2482.0,4051.0,1946.0,2055.0,3412364.0,
2485.0,4052.0,1952.0,2062.0,3412368.0,
2489.0,4050.0,1959.0,2068.0,3412371.0,
2487.0,4052.0,1967.0,2071.0,3412375.0,
2485.0,4052.0,1975.0,2077.0,3412379.0,
2483.0,4052.0,1986.0,2082.0,3412383.0,
2484.0,4051.0,1997.0,2082.0,3412387.0,
2488.0,4051.0,2010.0,2088.0,3412391.0,
2487.0,4052.0,2026.0,2091.0,3412394.0,
2484.0,4052.0,2043.0,2096.0,3412398.0,
2482.0,4052.0,2061.0,2098.0,3412402.0,
2484.0,4051.0,2084.0,2104.0,3412406.0,
2488.0,4051.0,2103.0,2106.0,3412410.0,
2488.0,4051.0,2127.0,2108.0,3412414.0,
2486.0,4053.0,2150.0,2110.0,3412417.0,
2483.0,4050.0,2174.0,2112.0,3412421.0,
2484.0,4051.0,2197.0,2117.0,3412425.0,
2488.0,4052.0,2230.0,2118.0,3412429.0,
2488.0,4052.0,2258.0,2120.0,3412433.0,
2486.0,4051.0,2286.0,2122.0,3412437.0,
2483.0,4053.0,2311.0,2124.0,3412441.0,
2484.0,4052.0,2338.0,2124.0,3412445.0,
2490.0,4052.0,2355.0,2125.0,3412449.0,
2489.0,4051.0,2379.0,2127.0,3412453.0,
2486.0,4051.0,2400.0,2126.0,3412456.0,
2484.0,4051.0,2419.0,2125.0,3412460.0,
2485.0,4052.0,2434.0,2125.0,3412464.0,
2487.0,4051.0,2447.0,2124.0,3412468.0,
2491.0,4052.0,2457.0,2126.0,3412472.0,
2488.0,4051.0,2464.0,2125.0,3412476.0,
2485.0,4052.0,2473.0,2126.0,3412480.0,
2484.0,4051.0,2478.0,2124.0,3412483.0,
2486.0,4051.0,2479.0,2124.0,3412487.0,
2490.0,4051.0,2478.0,2121.0,3412491.0,
2489.0,4053.0,2472.0,2125.0,3412495.0,
2485.0,4051.0,2469.0,2123.0,3412499.0,
2484.0,4052.0,2461.0,2124.0,3412503.0,
2486.0,4052.0,2453.0,2121.0,3412506.0,
2489.0,4051.0,2445.0,2122.0,3412510.0,
2489.0,4053.0,2437.0,2123.0,3412514.0,
2486.0,4051.0,2422.0,2120.0,3412518.0,
2484.0,4053.0,2408.0,2119.0,3412522.0,
2486.0,4050.0,2394.0,2118.0,3412525.0,
2489.0,4052.0,2380.0,2120.0,3412529.0,
2490.0,4051.0,2364.0,2116.0,3412533.0,
2486.0,4052.0,2349.0,2115.0,3412537.0,
2484.0,4051.0,2333.0,2111.0,3412541.0,
2485.0,4052.0,2316.0,2112.0,3412544.0,
2488.0,4050.0,2297.0,2105.0,3412548.0,
2490.0,4052.0,2283.0,2101.0,3412553.0,
2487.0,4052.0,2262.0,2102.0,3412556.0,
2484.0,4052.0,2245.0,2099.0,3412560.0,
2484.0,4052.0,2228.0,2091.0,3412565.0,
2489.0,4053.0,2214.0,2087.0,3412568.0,
2490.0,4050.0,2199.0,2086.0,3412572.0,
2487.0,4050.0,2185.0,2082.0,3412576.0,
2484.0,4052.0,2173.0,2079.0,3412580.0,
2484.0,4051.0,2157.0,2073.0,3412584.0,
2487.0,4052.0,2146.0,2071.0,3412588.0,
2490.0,4050.0,2134.0,2071.0,3412591.0,
2491.0,4052.0,2122.0,2065.0,3412595.0,
2486.0,4051.0,2116.0,2064.0,3412599.0,
2485.0,4051.0,2109.0,2061.0,3412603.0,
2487.0,4053.0,2099.0,2062.0,3412607.0,
2490.0,4051.0,2091.0,2058.0,3412611.0,
2489.0,4052.0,2081.0,2056.0,3412615.0,
2486.0,4051.0,2074.0,2052.0,3412618.0,
2484.0,4051.0,2065.0,2051.0,3412622.0,
2487.0,4051.0,2056.0,2054.0,3412626.0,
2490.0,4052.0,2051.0,2048.0,3412630.0,
2490.0,4052.0,2046.0,2051.0,3412634.0,
2487.0,4051.0,2042.0,2049.0,3412637.0,
2485.0,4052.0,2036.0,2048.0,3412641.0,
2486.0,4053.0,2031.0,2047.0,3412645.0,
2488.0,4052.0,2026.0,2048.0,3412649.0,
2490.0,4053.0,2024.0,2047.0,3412653.0,
2487.0,4051.0,2018.0,2046.0,3412656.0,
2484.0,4051.0,2014.0,2047.0,3412660.0,
2485.0,4050.0,2012.0,2043.0,3412664.0,
2488.0,4053.0,2008.0,2044.0,3412668.0,
2490.0,4051.0,2005.0,2045.0,3412672.0,
2489.0,4051.0,2003.0,2045.0,3412676.0,
2485.0,4050.0,2005.0,2041.0,3412679.0,
2483.0,4052.0,2003.0,2042.0,3412683.0,
2488.0,4053.0,2007.0,2042.0,3412687.0,
2490.0,4052.0,2009.0,2043.0,3412691.0,
2488.0,4052.0,2007.0,2045.0,3412695.0,
2484.0,4051.0,2009.0,2047.0,3412699.0,
2484.0,4051.0,2013.0,2046.0,3412703.0,
2488.0,4051.0,2019.0,2045.0,3412707.0,
2491.0,4053.0,2024.0,2048.0,3412710.0,
2489.0,4051.0,2029.0,2044.0,3412714.0,
2484.0,4052.0,2036.0,2046.0,3412718.0,
2484.0,4051.0,2042.0,2043.0,3412722.0,
2486.0,4051.0,2047.0,2043.0,3412726.0,
2490.0,4052.0,2056.0,2045.0,3412730.0,
2490.0,4051.0,2065.0,2042.0,3412734.0,
2486.0,4052.0,2072.0,2044.0,3412738.0,
2483.0,4050.0,2077.0,2040.0,3412741.0,
2486.0,4052.0,2080.0,2039.0,3412745.0,
2489.0,4050.0,2087.0,2040.0,3412749.0,
2489.0,4051.0,2089.0,2036.0,3412753.0,
2486.0,4052.0,2091.0,2036.0,3412757.0,
2483.0,4050.0,2091.0,2034.0,3412761.0,
2484.0,4052.0,2092.0,2033.0,3412764.0,
2488.0,4050.0,2095.0,2033.0,3412768.0,
2489.0,4051.0,2093.0,2030.0,3412772.0,
2486.0,4052.0,2095.0,2031.0,3412776.0,
2483.0,4052.0,2093.0,2030.0,3412780.0,
2483.0,4053.0,2092.0,2028.0,3412784.0,
2488.0,4050.0,2091.0,2029.0,3412788.0,
2489.0,4053.0,2087.0,2027.0,3412792.0,
2486.0,4051.0,2086.0,2027.0,3412795.0,
2483.0,4053.0,2081.0,2026.0,3412799.0,
2483.0,4051.0,2079.0,2023.0,3412803.0,
2486.0,4053.0,2073.0,2023.0,3412807.0,
2489.0,4053.0,2069.0,2022.0,3412811.0,
2488.0,4052.0,2065.0,2024.0,3412815.0,
2483.0,4051.0,2061.0,2023.0,3412818.0,
2483.0,4051.0,2058.0,2024.0,3412822.0,
2487.0,4052.0,2051.0,2023.0,3412826.0,
2489.0,4053.0,2044.0,2026.0,3412830.0,
2487.0,4052.0,2042.0,2023.0,3412834.0,
2485.0,4052.0,2034.0,2024.0,3412838.0,
2482.0,4051.0,2033.0,2022.0,3412842.0,
2484.0,4053.0,2028.0,2022.0,3412846.0,
2487.0,4051.0,2026.0,2021.0,3412849.0,
2488.0,4051.0,2023.0,2021.0,3412853.0,
2485.0,4052.0,2019.0,2021.0,3412857.0,
2482.0,4052.0,2015.0,2018.0,3412861.0,
2484.0,4053.0,2008.0,2021.0,3412865.0,
2487.0,4051.0,2003.0,2017.0,3412868.0,
2489.0,4053.0,1997.0,2019.0,3412872.0,
2488.0,4053.0,1993.0,2021.0,3412876.0,
2481.0,4051.0,1985.0,2016.0,3412880.0,
2483.0,4052.0,1983.0,2021.0,3412884.0,
2487.0,4052.0,1977.0,2015.0,3412888.0,
2489.0,4053.0,1973.0,2016.0,3412891.0,
2487.0,4052.0,1967.0,2015.0,3412895.0,
2484.0,4052.0,1963.0,2015.0,3412899.0,
2483.0,4053.0,1955.0,2016.0,3412903.0,
2486.0,4051.0,1952.0,2013.0,3412907.0,
2487.0,4052.0,1945.0,2014.0,3412911.0,
2487.0,4051.0,1947.0,2012.0,3412914.0,
2483.0,4053.0,1944.0,2016.0,3412918.0,
2483.0,4052.0,1944.0,2013.0,3412922.0,
2486.0,4051.0,1944.0,2012.0,3412926.0,
2488.0,4052.0,1946.0,2012.0,3412930.0,
2487.0,4051.0,1944.0,2010.0,3412934.0,
2484.0,4054.0,1946.0,2010.0,3412937.0,
2482.0,4052.0,1943.0,2009.0,3412941.0,
2482.0,4051.0,1944.0,2010.0,3412945.0,
2488.0,4052.0,1946.0,2007.0,3412949.0,
2489.0,4053.0,1945.0,2009.0,3412953.0,
2486.0,4051.0,1948.0,2008.0,3412957.0,
2483.0,4052.0,1944.0,2008.0,3412960.0,
2485.0,4051.0,1946.0,2006.0,3412964.0,
2487.0,4052.0,1945.0,2006.0,3412968.0,
2490.0,4050.0,1949.0,2008.0,3412972.0,
2486.0,4053.0,1944.0,2005.0,3412976.0,
2484.0,4052.0,1947.0,2005.0,3412980.0,
2484.0,4052.0,1946.0,2006.0,3412985.0,
2486.0,4052.0,1944.0,2001.0,3412988.0,
2489.0,4051.0,1946.0,2004.0,3412992.0,
2486.0,4053.0,1947.0,2004.0,3412996.0,
2483.0,4050.0,1952.0,2003.0,3413000.0,
2484.0,4052.0,1953.0,2004.0,3413004.0,
2487.0,4051.0,1955.0,2002.0,3413007.0,
2489.0,4051.0,1952.0,2004.0,3413011.0,
2487.0,4051.0,1951.0,2003.0,3413015.0,
2484.0,4050.0,1949.0,2002.0,3413019.0,
2484.0,4053.0,1946.0,2003.0,3413023.0,
2487.0,4051.0,1943.0,2004.0,3413027.0,
2490.0,4053.0,1939.0,2004.0,3413030.0,
2488.0,4052.0,1936.0,2005.0,3413034.0,
2485.0,4051.0,1936.0,2004.0,3413038.0,
2486.0,4052.0,1931.0,2006.0,3413043.0,
2488.0,4052.0,1932.0,2006.0,3413046.0,
2491.0,4052.0,1929.0,2003.0,3413050.0,
2489.0,4051.0,1927.0,2001.0,3413054.0,
2487.0,4050.0,1933.0,2003.0,3413058.0,
2485.0,4053.0,1929.0,2005.0,3413062.0,
2486.0,4052.0,1930.0,2005.0,3413066.0,
2490.0,4051.0,1928.0,2002.0,3413070.0,
2490.0,4054.0,1932.0,2005.0,3413074.0,
2486.0,4051.0,1932.0,2003.0,3413078.0,
2484.0,4051.0,1928.0,2006.0,3413081.0,
2487.0,4051.0,1927.0,2005.0,3413085.0,
2490.0,4053.0,1927.0,2009.0,3413089.0,
2489.0,4052.0,1927.0,2006.0,3413093.0,
2487.0,4052.0,1928.0,2010.0,3413097.0,
2482.0,4052.0,1930.0,2010.0,3413100.0,
2486.0,4052.0,1932.0,2012.0,3413104.0,
2489.0,4051.0,1932.0,2011.0,3413108.0,
2490.0,4052.0,1934.0,2016.0,3413112.0,
2487.0,4052.0,1936.0,2016.0,3413116.0,
2484.0,4053.0,1939.0,2021.0,3413120.0,
2485.0,4050.0,1944.0,2020.0,3413124.0,
2489.0,4052.0,1945.0,2026.0,3413128.0,
2489.0,4051.0,1947.0,2027.0,3413131.0,
2488.0,4050.0,1949.0,2029.0,3413135.0,
2485.0,4051.0,1949.0,2033.0,3413139.0,
2485.0,4051.0,1954.0,2038.0,3413143.0,
2490.0,4052.0,1959.0,2042.0,3413147.0,
2490.0,4053.0,1965.0,2047.0,3413151.0,
2487.0,4052.0,1967.0,2051.0,3413155.0,
2485.0,4051.0,1972.0,2055.0,3413159.0,
2484.0,4052.0,1978.0,2061.0,3413163.0,
2488.0,4050.0,1985.0,2065.0,3413167.0,
2490.0,4053.0,1990.0,2069.0,3413170.0,
2489.0,4051.0,2004.0,2072.0,3413174.0,
2484.0,4051.0,2015.0,2078.0,3413178.0,
2484.0,4050.0,2030.0,2081.0,3413182.0,
2485.0,4053.0,2047.0,2087.0,3413186.0,
2490.0,4051.0,2062.0,2089.0,3413190.0,
2488.0,4052.0,2079.0,2093.0,3413193.0,
2485.0,4051.0,2101.0,2095.0,3413197.0,
2484.0,4051.0,2121.0,2102.0,3413201.0,
2486.0,4051.0,2148.0,2103.0,3413205.0,
2489.0,4053.0,2172.0,2106.0,3413209.0,
2488.0,4051.0,2197.0,2108.0,3413213.0,
2486.0,4053.0,2222.0,2110.0,3413216.0,
2484.0,4050.0,2250.0,2111.0,3413220.0,
2485.0,4050.0,2275.0,2113.0,3413224.0,
2489.0,4054.0,2302.0,2117.0,3413228.0,
2489.0,4051.0,2324.0,2114.0,3413232.0,
2486.0,4052.0,2348.0,2118.0,3413236.0,
2484.0,4051.0,2368.0,2117.0,3413240.0,
2485.0,4053.0,2387.0,2117.0,3413244.0,
2489.0,4051.0,2404.0,2114.0,3413248.0,
2489.0,4053.0,2419.0,2116.0,3413252.0,
2486.0,4049.0,2435.0,2112.0,3413255.0,
2484.0,4051.0,2443.0,2113.0,3413259.0,
2485.0,4052.0,2451.0,2112.0,3413263.0,
2489.0,4053.0,2455.0,2113.0,3413267.0,
2488.0,4052.0,2460.0,2111.0,3413271.0,
2487.0,4051.0,2458.0,2110.0,3413275.0,
2483.0,4052.0,2454.0,2109.0,3413279.0,
2484.0,4051.0,2451.0,2108.0,3413283.0,
2488.0,4053.0,2446.0,2108.0,3413287.0,
2490.0,4051.0,2437.0,2106.0,3413291.0,
2488.0,4052.0,2432.0,2106.0,3413295.0,
2484.0,4051.0,2416.0,2103.0,3413299.0,
2485.0,4053.0,2407.0,2104.0,3413303.0,
2487.0,4051.0,2393.0,2098.0,3413307.0,
2490.0,4052.0,2379.0,2100.0,3413310.0,
2487.0,4050.0,2361.0,2095.0,3413314.0,
2484.0,4051.0,2347.0,2092.0,3413318.0,
2484.0,4050.0,2325.0,2089.0,3413322.0,
2487.0,4052.0,2312.0,2086.0,3413326.0,
2490.0,4053.0,2295.0,2084.0,3413330.0,
2488.0,4051.0,2278.0,2078.0,3413334.0,
2484.0,4051.0,2258.0,2078.0,3413338.0,
2483.0,4051.0,2244.0,2071.0,3413341.0,
2487.0,4054.0,2223.0,2071.0,3413345.0,
2489.0,4052.0,2210.0,2066.0,3413349.0,
2489.0,4052.0,2196.0,2061.0,3413353.0,
2485.0,4052.0,2183.0,2056.0,3413357.0,
2484.0,4051.0,2168.0,2053.0,3413360.0,
2486.0,4052.0,2155.0,2054.0,3413364.0,
2490.0,4053.0,2141.0,2048.0,3413368.0,
2490.0,4051.0,2128.0,2047.0,3413372.0,
2486.0,4053.0,2111.0,2045.0,3413376.0,
2484.0,4050.0,2102.0,2042.0,3413380.0,
2485.0,4052.0,2089.0,2042.0,3413383.0,
2488.0,4054.0,2079.0,2040.0,3413387.0,
2489.0,4051.0,2068.0,2040.0,3413391.0,
2486.0,4052.0,2058.0,2040.0,3413395.0,
2484.0,4052.0,2042.0,2037.0,3413399.0,
2485.0,4051.0,2031.0,2037.0,3413403.0,
2488.0,4052.0,2022.0,2035.0,3413407.0,
2491.0,4052.0,2012.0,2038.0,3413411.0,
2488.0,4052.0,2005.0,2038.0,3413415.0,
2484.0,4053.0,1999.0,2039.0,3413419.0,
2484.0,4053.0,1993.0,2035.0,3413423.0,
2488.0,4049.0,1987.0,2040.0,3413427.0,
2489.0,4053.0,1991.0,2041.0,3413431.0,
2487.0,4052.0,1986.0,2040.0,3413435.0,
2484.0,4051.0,1987.0,2038.0,3413439.0,
2485.0,4052.0,1986.0,2043.0,3413443.0,
2488.0,4051.0,1985.0,2042.0,3413447.0,
2489.0,4053.0,1980.0,2044.0,3413451.0,
2487.0,4050.0,1980.0,2042.0,3413454.0,
2484.0,4051.0,1977.0,2043.0,3413458.0,
2484.0,4052.0,1974.0,2045.0,3413462.0,
2488.0,4051.0,1978.0,2044.0,3413466.0,
2490.0,4053.0,1981.0,2045.0,3413470.0,
2487.0,4051.0,1984.0,2042.0,3413474.0,
2484.0,4053.0,1985.0,2043.0,3413477.0,
2483.0,4051.0,1989.0,2042.0,3413481.0,
2487.0,4052.0,1991.0,2045.0,3413485.0,
2490.0,4051.0,1997.0,2041.0,3413489.0,
2489.0,4053.0,2000.0,2044.0,3413493.0,
2485.0,4051.0,2006.0,2040.0,3413497.0,
2484.0,4053.0,2012.0,2041.0,3413500.0,
2487.0,4052.0,2017.0,2040.0,3413504.0,
2490.0,4052.0,2022.0,2037.0,3413508.0,
2490.0,4051.0,2027.0,2038.0,3413512.0,
2486.0,4053.0,2031.0,2037.0,3413516.0,
2484.0,4051.0,2039.0,2034.0,3413520.0,
2485.0,4053.0,2046.0,2035.0,3413523.0,
2489.0,4053.0,2050.0,2034.0,3413527.0,
2490.0,4052.0,2058.0,2031.0,3413531.0,
2487.0,4051.0,2062.0,2031.0,3413535.0,
2484.0,4053.0,2065.0,2031.0,3413539.0,
2485.0,4051.0,2068.0,2031.0,3413543.0,
2488.0,4054.0,2071.0,2029.0,3413546.0,
2489.0,4050.0,2073.0,2030.0,3413550.0,
2487.0,4051.0,2073.0,2025.0,3413554.0,
2485.0,4052.0,2071.0,2029.0,3413558.0,
2485.0,4051.0,2072.0,2027.0,3413562.0,
2486.0,4053.0,2067.0,2027.0,3413566.0,
2489.0,4051.0,2072.0,2024.0,3413569.0,
2488.0,4051.0,2065.0,2023.0,3413573.0,
2485.0,4052.0,2064.0,2023.0,3413577.0,
2484.0,4052.0,2058.0,2023.0,3413581.0,
2486.0,4050.0,2053.0,2020.0,3413585.0,
2491.0,4053.0,2052.0,2018.0,3413588.0,
2487.0,4051.0,2047.0,2018.0,3413592.0,
2485.0,4053.0,2043.0,2016.0,3413596.0,
2484.0,4051.0,2041.0,2016.0,3413600.0,
2486.0,4051.0,2037.0,2016.0,3413604.0,
2489.0,4051.0,2032.0,2015.0,3413608.0,
2489.0,4052.0,2027.0,2013.0,3413612.0,
2486.0,4050.0,2022.0,2014.0,3413616.0,
2485.0,4052.0,2015.0,2015.0,3413620.0,
2486.0,4051.0,2014.0,2010.0,3413624.0,
2489.0,4053.0,2005.0,2011.0,3413627.0,
2489.0,4053.0,1999.0,2010.0,3413631.0,
2486.0,4052.0,1997.0,2010.0,3413635.0,
2484.0,4052.0,1986.0,2011.0,3413639.0,
2485.0,4051.0,1984.0,2006.0,3413643.0,
2489.0,4053.0,1976.0,2009.0,3413647.0,
2489.0,4051.0,1973.0,2009.0,3413651.0,
2487.0,4052.0,1967.0,2007.0,3413654.0,
2484.0,4050.0,1962.0,2007.0,3413658.0,
2484.0,4051.0,1958.0,2007.0,3413662.0,
2488.0,4052.0,1954.0,2010.0,3413666.0,
2490.0,4051.0,1947.0,2004.0,3413670.0,
2488.0,4052.0,1942.0,2007.0,3413673.0,
2484.0,4051.0,1941.0,2008.0,3413677.0,
2484.0,4051.0,1943.0,2006.0,3413681.0,
2485.0,4051.0,1940.0,2007.0,3413685.0,
2490.0,4051.0,1938.0,2009.0,3413689.0,
2487.0,4051.0,1935.0,2008.0,3413693.0,
2484.0,4051.0,1934.0,2008.0,3413697.0,
2483.0,4052.0,1930.0,2007.0,3413701.0,
2487.0,4051.0,1930.0,2008.0,3413705.0,
2490.0,4053.0,1932.0,2009.0,3413708.0,
2486.0,4051.0,1934.0,2006.0,3413712.0,
2485.0,4051.0,1935.0,2006.0,3413716.0,
2484.0,4053.0,1937.0,2005.0,3413720.0,
2485.0,4051.0,1938.0,2003.0,3413724.0,
2490.0,4053.0,1940.0,2005.0,3413728.0,
2488.0,4052.0,1936.0,2004.0,3413731.0,
2486.0,4049.0,1935.0,2001.0,3413735.0,
2485.0,4051.0,1931.0,2002.0,3413739.0,
2485.0,4053.0,1929.0,2003.0,3413743.0,
2488.0,4052.0,1926.0,2003.0,3413747.0,
2490.0,4051.0,1926.0,2004.0,3413751.0,
2486.0,4051.0,1925.0,2002.0,3413755.0,
2484.0,4052.0,1926.0,2002.0,3413759.0,
2485.0,4052.0,1924.0,2000.0,3413762.0,
2489.0,4052.0,1923.0,2001.0,3413766.0,
2489.0,4052.0,1923.0,2003.0,3413770.0,
2487.0,4051.0,1925.0,2002.0,3413774.0,
2483.0,4050.0,1925.0,2001.0,3413778.0,
2485.0,4052.0,1928.0,2004.0,3413782.0,
2489.0,4051.0,1931.0,2000.0,3413786.0,
2489.0,4051.0,1936.0,2000.0,3413790.0,
2487.0,4051.0,1941.0,2000.0,3413794.0,
2483.0,4051.0,1945.0,1999.0,3413798.0,
2484.0,4052.0,1950.0,1999.0,3413802.0,
2489.0,4051.0,1951.0,1999.0,3413806.0,
2490.0,4052.0,1956.0,2002.0,3413810.0,
2486.0,4051.0,1960.0,1999.0,3413814.0,
2484.0,4053.0,1957.0,1998.0,3413818.0,
2485.0,4051.0,1963.0,2000.0,3413822.0,
2487.0,4052.0,1960.0,1999.0,3413826.0,
2489.0,4048.0,1958.0,2000.0,3413829.0,
2487.0,4050.0,1958.0,2000.0,3413833.0,
2484.0,4051.0,1957.0,2002.0,3413837.0,
2483.0,4052.0,1956.0,2004.0,3413841.0,
2487.0,4051.0,1955.0,2004.0,3413845.0,
2490.0,4053.0,1949.0,2006.0,3413848.0,
2488.0,4052.0,1945.0,2006.0,3413852.0,
2485.0,4052.0,1938.0,2009.0,3413856.0,
2484.0,4052.0,1929.0,2012.0,3413860.0,
2486.0,4051.0,1925.0,2015.0,3413864.0,
2489.0,4051.0,1916.0,2019.0,3413868.0,
2488.0,4050.0,1915.0,2023.0,3413872.0,
2484.0,4051.0,1912.0,2026.0,3413876.0,
2484.0,4053.0,1912.0,2034.0,3413880.0,
2487.0,4051.0,1911.0,2038.0,3413884.0,
2491.0,4053.0,1912.0,2042.0,3413888.0,
2490.0,4052.0,1910.0,2049.0,3413891.0,
2487.0,4052.0,1914.0,2054.0,3413895.0,
2483.0,4051.0,1913.0,2058.0,3413899.0,
2485.0,4051.0,1919.0,2062.0,3413903.0,
2491.0,4052.0,1919.0,2068.0,3413907.0,
2489.0,4050.0,1932.0,2072.0,3413911.0,
2487.0,4053.0,1940.0,2079.0,3413914.0,
2484.0,4052.0,1951.0,2082.0,3413918.0,
2484.0,4052.0,1963.0,2089.0,3413922.0,
2488.0,4050.0,1981.0,2092.0,3413926.0,
2490.0,4052.0,2001.0,2098.0,3413930.0,
2487.0,4051.0,2023.0,2100.0,3413934.0,
2482.0,4052.0,2048.0,2105.0,3413937.0,
2483.0,4050.0,2074.0,2107.0,3413941.0,
2488.0,4052.0,2103.0,2114.0,3413945.0,
2490.0,4051.0,2139.0,2115.0,3413949.0,
2488.0,4051.0,2167.0,2120.0,3413952.0,
2486.0,4051.0,2202.0,2120.0,3413956.0,
2483.0,4051.0,2236.0,2124.0,3413960.0,
2487.0,4053.0,2273.0,2127.0,3413964.0,
2489.0,4052.0,2309.0,2129.0,3413968.0,
2489.0,4051.0,2346.0,2130.0,3413972.0,
2485.0,4050.0,2378.0,2128.0,3413975.0,
2484.0,4051.0,2413.0,2131.0,3413979.0,
2487.0,4051.0,2452.0,2132.0,3413984.0,
2489.0,4052.0,2488.0,2134.0,3413988.0,
2487.0,4051.0,2519.0,2132.0,3413992.0,
2485.0,4051.0,2546.0,2132.0,3413996.0,
2484.0,4050.0,2568.0,2131.0,3414001.0,
2487.0,4053.0,2589.0,2133.0,3414004.0,
2489.0,4051.0,2605.0,2133.0,3414008.0,
2488.0,4051.0,2616.0,2131.0,3414012.0,
2485.0,4050.0,2626.0,2129.0,3414016.0,
2485.0,4052.0,2632.0,2129.0,3414020.0,
2487.0,4052.0,2639.0,2130.0,3414024.0,
2490.0,4053.0,2641.0,2129.0,3414027.0,
2489.0,4052.0,2641.0,2128.0,3414031.0,
2485.0,4052.0,2639.0,2128.0,3414035.0,
2483.0,4052.0,2636.0,2123.0,3414039.0,
2486.0,4052.0,2627.0,2124.0,3414043.0,
2489.0,4051.0,2614.0,2122.0,3414047.0,
2489.0,4052.0,2605.0,2122.0,3414050.0,
2486.0,4052.0,2590.0,2120.0,3414054.0,
2483.0,4051.0,2575.0,2118.0,3414058.0,
2486.0,4050.0,2557.0,2114.0,3414062.0,
2489.0,4051.0,2536.0,2114.0,3414066.0,
2488.0,4051.0,2520.0,2110.0,3414070.0,
2487.0,4053.0,2503.0,2110.0,3414074.0,
2483.0,4051.0,2481.0,2105.0,3414078.0,
2485.0,4052.0,2464.0,2106.0,3414082.0,
2488.0,4051.0,2444.0,2100.0,3414085.0,
2489.0,4050.0,2426.0,2100.0,3414089.0,
2487.0,4051.0,2409.0,2095.0,3414093.0,
2484.0,4051.0,2390.0,2096.0,3414097.0,
2484.0,4049.0,2371.0,2094.0,3414101.0,
2488.0,4052.0,2355.0,2091.0,3414105.0,
2490.0,4051.0,2336.0,2087.0,3414108.0,
2488.0,4052.0,2321.0,2085.0,3414112.0,
2484.0,4052.0,2302.0,2081.0,3414116.0,
2485.0,4051.0,2285.0,2078.0,3414120.0,
2488.0,4052.0,2266.0,2075.0,3414124.0,
2490.0,4053.0,2255.0,2073.0,3414128.0,
2487.0,4050.0,2240.0,2067.0,3414132.0,
2485.0,4052.0,2228.0,2067.0,3414136.0,
2483.0,4052.0,2212.0,2065.0,3414140.0,
2489.0,4052.0,2195.0,2064.0,3414144.0,
2492.0,4052.0,2184.0,2065.0,3414148.0,
2488.0,4052.0,2169.0,2059.0,3414152.0,
2485.0,4052.0,2155.0,2059.0,3414156.0,
2484.0,4053.0,2138.0,2058.0,3414160.0,
2487.0,4052.0,2124.0,2055.0,3414164.0,
2489.0,4053.0,2116.0,2055.0,3414168.0,
2488.0,4051.0,2103.0,2053.0,3414172.0,
2484.0,4053.0,2092.0,2054.0,3414176.0,
2483.0,4050.0,2078.0,2052.0,3414179.0,
2487.0,4052.0,2069.0,2051.0,3414183.0,
2489.0,4051.0,2055.0,2050.0,3414187.0,
2489.0,4051.0,2043.0,2050.0,3414191.0,
2485.0,4051.0,2034.0,2049.0,3414195.0,
2484.0,4053.0,2030.0,2052.0,3414199.0,
2485.0,4051.0,2022.0,2047.0,3414202.0,
2489.0,4052.0,2016.0,2049.0,3414206.0,
2488.0,4050.0,2014.0,2049.0,3414210.0,
2485.0,4054.0,2008.0,2050.0,3414214.0,
2483.0,4051.0,2009.0,2049.0,3414218.0,
2485.0,4051.0,2008.0,2051.0,3414221.0,
2488.0,4052.0,2012.0,2049.0,3414225.0,
2489.0,4050.0,2017.0,2047.0,3414229.0,
2486.0,4052.0,2021.0,2050.0,3414233.0,
2484.0,4051.0,2027.0,2047.0,3414237.0,
2484.0,4053.0,2035.0,2046.0,3414240.0,
2488.0,4052.0,2041.0,2049.0,3414244.0,
2490.0,4052.0,2051.0,2050.0,3414248.0,
2487.0,4052.0,2058.0,2046.0,3414252.0,
2482.0,4052.0,2066.0,2045.0,3414256.0,
2484.0,4051.0,2071.0,2048.0,3414259.0,
2486.0,4052.0,2080.0,2046.0,3414263.0,
2489.0,4052.0,2085.0,2048.0,3414267.0,
2489.0,4053.0,2094.0,2046.0,3414271.0,
2485.0,4051.0,2099.0,2046.0,3414275.0,
2484.0,4052.0,2101.0,2044.0,3414279.0,
2487.0,4052.0,2105.0,2045.0,3414282.0,
2490.0,4052.0,2109.0,2045.0,3414286.0,
2489.0,4052.0,2110.0,2043.0,3414290.0,
2486.0,4052.0,2110.0,2044.0,3414294.0,
2484.0,4052.0,2108.0,2045.0,3414298.0,
2485.0,4052.0,2106.0,2043.0,3414302.0,
2489.0,4052.0,2104.0,2046.0,3414305.0,
2489.0,4050.0,2104.0,2042.0,3414309.0,
2486.0,4052.0,2100.0,2041.0,3414313.0,
2484.0,4051.0,2097.0,2039.0,3414317.0,
2484.0,4051.0,2094.0,2037.0,3414321.0,
2488.0,4052.0,2089.0,2037.0,3414325.0,
2489.0,4051.0,2085.0,2034.0,3414329.0,
