EDA,Resp,PPG Finger,PPG Ear,arduino_ts,event_code
2480.0,4054.0,1814.0,2013.0,4354392.0,
2481.0,4052.0,1812.0,2015.0,4354396.0,
2481.0,4050.0,1811.0,2014.0,4354400.0,
2480.0,4051.0,1808.0,2018.0,4354404.0,
2477.0,4051.0,1805.0,2018.0,4354407.0,
2479.0,4052.0,1801.0,2022.0,4354411.0,
2480.0,4052.0,1799.0,2023.0,4354415.0,
2482.0,4051.0,1797.0,2027.0,4354419.0,
2475.0,4053.0,1796.0,2031.0,4354423.0,
2477.0,4050.0,1796.0,2032.0,4354427.0,
2477.0,4051.0,1795.0,2037.0,4354430.0,
2480.0,4051.0,1795.0,2039.0,4354434.0,
2482.0,4051.0,1797.0,2043.0,4354438.0,
2480.0,4051.0,1800.0,2047.0,4354442.0,
2477.0,4051.0,1805.0,2050.0,4354447.0,
2479.0,4052.0,1812.0,2052.0,4354451.0,
2481.0,4052.0,1821.0,2058.0,4354454.0,
2482.0,4050.0,1832.0,2058.0,4354458.0,
2480.0,4052.0,1843.0,2063.0,4354462.0,
2479.0,4051.0,1858.0,2066.0,4354466.0,
2478.0,4053.0,1875.0,2072.0,4354470.0,
2480.0,4051.0,1894.0,2074.0,4354474.0,
2482.0,4051.0,1914.0,2077.0,4354477.0,
2480.0,4051.0,1939.0,2077.0,4354481.0,
2478.0,4052.0,1957.0,2082.0,4354485.0,
2479.0,4051.0,1981.0,2082.0,4354489.0,
2480.0,4051.0,2005.0,2087.0,4354493.0,
2481.0,4051.0,2030.0,2088.0,4354496.0,
2481.0,4052.0,2054.0,2090.0,4354500.0,
2479.0,4051.0,2078.0,2093.0,4354504.0,
2478.0,4050.0,2105.0,2090.0,4354508.0,
2478.0,4052.0,2132.0,2095.0,4354512.0,
2481.0,4051.0,2156.0,2092.0,4354516.0,
2481.0,4052.0,2179.0,2095.0,4354519.0,
2479.0,4052.0,2201.0,2095.0,4354523.0,
2478.0,4052.0,2220.0,2096.0,4354527.0,
2479.0,4050.0,2240.0,2095.0,4354531.0,
2480.0,4053.0,2257.0,2093.0,4354535.0,
2481.0,4051.0,2273.0,2094.0,4354538.0,
2482.0,4051.0,2285.0,2097.0,4354542.0,
2479.0,4051.0,2298.0,2096.0,4354546.0,
2479.0,4052.0,2304.0,2095.0,4354550.0,
2481.0,4051.0,2320.0,2094.0,4354554.0,
2483.0,4053.0,2325.0,2091.0,4354558.0,
2481.0,4051.0,2337.0,2093.0,4354561.0,
2479.0,4050.0,2339.0,2091.0,4354565.0,
2478.0,4052.0,2346.0,2093.0,4354569.0,
2479.0,4050.0,2347.0,2093.0,4354573.0,
2482.0,4052.0,2348.0,2093.0,4354577.0,
2481.0,4052.0,2347.0,2091.0,4354581.0,
2478.0,4052.0,2342.0,2093.0,4354584.0,
2478.0,4052.0,2340.0,2090.0,4354588.0,
2479.0,4052.0,2333.0,2091.0,4354592.0,
2481.0,4051.0,2327.0,2090.0,4354596.0,
2481.0,4052.0,2316.0,2090.0,4354600.0,
2479.0,4052.0,2305.0,2088.0,4354603.0,
2478.0,4052.0,2291.0,2089.0,4354607.0,
2478.0,4051.0,2278.0,2088.0,4354611.0,
2481.0,4052.0,2262.0,2086.0,4354615.0,
2482.0,4051.0,2246.0,2086.0,4354619.0,
2481.0,4052.0,2231.0,2085.0,4354622.0,
2477.0,4051.0,2215.0,2082.0,4354626.0,
2478.0,4052.0,2199.0,2081.0,4354630.0,
2481.0,4052.0,2181.0,2081.0,4354634.0,
2482.0,4050.0,2168.0,2079.0,4354638.0,
2481.0,4053.0,2152.0,2077.0,4354641.0,
2479.0,4051.0,2141.0,2074.0,4354645.0,
2477.0,4052.0,2123.0,2072.0,4354649.0,
2479.0,4050.0,2112.0,2074.0,4354653.0,
2483.0,4051.0,2100.0,2070.0,4354657.0,
2482.0,4053.0,2090.0,2069.0,4354660.0,
2478.0,4051.0,2078.0,2066.0,4354664.0,
2477.0,4052.0,2068.0,2063.0,4354668.0,
2481.0,4049.0,2062.0,2063.0,4354672.0,
2481.0,4052.0,2052.0,2063.0,4354676.0,
2480.0,4052.0,2039.0,2059.0,4354679.0,
2481.0,4051.0,2033.0,2060.0,4354683.0,
2479.0,4051.0,2026.0,2058.0,4354687.0,
2478.0,4052.0,2019.0,2056.0,4354691.0,
2481.0,4051.0,2015.0,2054.0,4354695.0,
2482.0,4053.0,2006.0,2055.0,4354698.0,
2480.0,4052.0,1998.0,2054.0,4354702.0,
2478.0,4051.0,1988.0,2051.0,4354706.0,
2478.0,4053.0,1980.0,2052.0,4354710.0,
2480.0,4052.0,1974.0,2051.0,4354714.0,
2481.0,4053.0,1967.0,2056.0,4354718.0,
2480.0,4051.0,1964.0,2053.0,4354721.0,
2478.0,4051.0,1957.0,2055.0,4354725.0,
2477.0,4052.0,1954.0,2054.0,4354729.0,
2479.0,4051.0,1949.0,2055.0,4354733.0,
2481.0,4052.0,1943.0,2054.0,4354737.0,
2482.0,4050.0,1938.0,2053.0,4354740.0,
2480.0,4050.0,1937.0,2053.0,4354744.0,
2478.0,4050.0,1929.0,2052.0,4354748.0,
2479.0,4051.0,1925.0,2052.0,4354752.0,
2480.0,4052.0,1921.0,2053.0,4354756.0,
2481.0,4052.0,1921.0,2054.0,4354760.0,
2480.0,4052.0,1915.0,2052.0,4354763.0,
2477.0,4049.0,1916.0,2050.0,4354767.0,
2478.0,4050.0,1912.0,2049.0,4354771.0,
2481.0,4053.0,1913.0,2053.0,4354775.0,
2481.0,4050.0,1915.0,2050.0,4354779.0,
2480.0,4051.0,1915.0,2051.0,4354782.0,
2479.0,4050.0,1919.0,2047.0,4354786.0,
2478.0,4050.0,1923.0,2049.0,4354790.0,
2480.0,4052.0,1927.0,2048.0,4354794.0,
2483.0,4050.0,1933.0,2048.0,4354798.0,
2481.0,4051.0,1934.0,2048.0,4354802.0,
2478.0,4052.0,1936.0,2045.0,4354805.0,
2478.0,4051.0,1937.0,2044.0,4354809.0,
2480.0,4051.0,1941.0,2045.0,4354813.0,
2482.0,4052.0,1945.0,2045.0,4354817.0,
2481.0,4050.0,1951.0,2040.0,4354821.0,
2480.0,4052.0,1956.0,2039.0,4354825.0,
2478.0,4050.0,1960.0,2035.0,4354828.0,
2479.0,4050.0,1962.0,2036.0,4354832.0,
2481.0,4051.0,1965.0,2036.0,4354836.0,
2482.0,4050.0,1963.0,2035.0,4354840.0,
2479.0,4050.0,1966.0,2034.0,4354844.0,
2478.0,4052.0,1966.0,2034.0,4354848.0,
2478.0,4050.0,1964.0,2036.0,4354852.0,
2481.0,4052.0,1964.0,2036.0,4354855.0,
2482.0,4050.0,1968.0,2037.0,4354859.0,
2480.0,4051.0,1968.0,2034.0,4354863.0,
2477.0,4050.0,1969.0,2036.0,4354867.0,
2479.0,4052.0,1970.0,2036.0,4354871.0,
2478.0,4052.0,1968.0,2035.0,4354875.0,
2482.0,4050.0,1967.0,2034.0,4354879.0,
2480.0,4053.0,1965.0,2036.0,4354883.0,
2478.0,4050.0,1963.0,2032.0,4354886.0,
2479.0,4052.0,1961.0,2035.0,4354890.0,
2480.0,4053.0,1960.0,2036.0,4354894.0,
2482.0,4051.0,1958.0,2031.0,4354898.0,
2481.0,4053.0,1953.0,2036.0,4354902.0,
2479.0,4049.0,1950.0,2033.0,4354906.0,
2483.0,4050.0,1944.0,2034.0,4354909.0,
2479.0,4052.0,1944.0,2032.0,4354913.0,
2482.0,4051.0,1939.0,2031.0,4354917.0,
2481.0,4052.0,1931.0,2034.0,4354921.0,
2479.0,4051.0,1925.0,2029.0,4354925.0,
2477.0,4052.0,1917.0,2030.0,4354928.0,
2479.0,4052.0,1908.0,2031.0,4354932.0,
2480.0,4052.0,1902.0,2030.0,4354936.0,
2482.0,4050.0,1894.0,2025.0,4354940.0,
2480.0,4053.0,1888.0,2027.0,4354944.0,
2478.0,4050.0,1882.0,2025.0,4354948.0,
2479.0,4051.0,1876.0,2025.0,4354951.0,
2480.0,4051.0,1872.0,2026.0,4354955.0,
2482.0,4052.0,1868.0,2023.0,4354959.0,
2480.0,4052.0,1865.0,2024.0,4354963.0,
2478.0,4050.0,1862.0,2022.0,4354967.0,
2478.0,4082.0,1865.0,2019.0,4354970.0,
2480.0,4052.0,1856.0,2021.0,4354974.0,
2481.0,4052.0,1855.0,2022.0,4354978.0,
2481.0,4051.0,1847.0,2018.0,4354982.0,
2479.0,4051.0,1843.0,2020.0,4354986.0,
2477.0,4051.0,1841.0,2019.0,4354990.0,
2479.0,4052.0,1835.0,2018.0,4354993.0,
2481.0,4052.0,1833.0,2020.0,4354998.0,
2481.0,4051.0,1827.0,2017.0,4355002.0,
2479.0,4052.0,1826.0,2018.0,4355006.0,
2478.0,4051.0,1824.0,2016.0,4355010.0,
2480.0,4052.0,1827.0,2017.0,4355013.0,
2481.0,4051.0,1825.0,2014.0,4355017.0,
2481.0,4050.0,1822.0,2016.0,4355021.0,
2480.0,4051.0,1824.0,2018.0,4355025.0,
2478.0,4052.0,1821.0,2017.0,4355029.0,
2479.0,4051.0,1824.0,2016.0,4355033.0,
2482.0,4052.0,1822.0,2019.0,4355037.0,
2481.0,4050.0,1822.0,2015.0,4355041.0,
2479.0,4051.0,1819.0,2017.0,4355044.0,
2478.0,4052.0,1817.0,2018.0,4355048.0,
2479.0,4052.0,1816.0,2014.0,4355052.0,
2480.0,4050.0,1819.0,2013.0,4355056.0,
2482.0,4051.0,1816.0,2012.0,4355060.0,
2480.0,4051.0,1813.0,2012.0,4355064.0,
2477.0,4052.0,1811.0,2012.0,4355068.0,
2478.0,4052.0,1808.0,2011.0,4355072.0,
2479.0,4052.0,1807.0,2010.0,4355076.0,
2482.0,4051.0,1807.0,2008.0,4355080.0,
2480.0,4051.0,1802.0,2012.0,4355084.0,
2477.0,4051.0,1803.0,2012.0,4355088.0,
2479.0,4051.0,1799.0,2009.0,4355092.0,
2480.0,4051.0,1801.0,2014.0,4355096.0,
2481.0,4050.0,1802.0,2012.0,4355100.0,
2481.0,4051.0,1800.0,2014.0,4355104.0,
2477.0,4052.0,1800.0,2015.0,4355108.0,
2478.0,4050.0,1800.0,2014.0,4355112.0,
2480.0,4052.0,1797.0,2015.0,4355116.0,
2480.0,4051.0,1796.0,2014.0,4355120.0,
2482.0,4052.0,1798.0,2015.0,4355123.0,
2478.0,4052.0,1795.0,2017.0,4355127.0,
2479.0,4052.0,1793.0,2015.0,4355131.0,
2480.0,4052.0,1795.0,2015.0,4355135.0,
2482.0,4049.0,1797.0,2011.0,4355139.0,
2481.0,4052.0,1798.0,2016.0,4355143.0,
2479.0,4051.0,1800.0,2016.0,4355147.0,
2478.0,4052.0,1804.0,2017.0,4355150.0,
2479.0,4051.0,1809.0,2015.0,4355154.0,
2480.0,4051.0,1812.0,2015.0,4355158.0,
2480.0,4052.0,1818.0,2015.0,4355162.0,
2478.0,4050.0,1824.0,2011.0,4355166.0,
2477.0,4050.0,1826.0,2013.0,4355169.0,
2480.0,4052.0,1836.0,2011.0,4355173.0,
2481.0,4052.0,1834.0,2009.0,4355177.0,
2481.0,4050.0,1838.0,2007.0,4355181.0,
2475.0,4050.0,1837.0,2006.0,4355185.0,
2478.0,4051.0,1837.0,2005.0,4355189.0,
2478.0,4050.0,1839.0,2006.0,4355193.0,
2481.0,4052.0,1836.0,2006.0,4355197.0,
2482.0,4051.0,1840.0,2007.0,4355200.0,
2480.0,4053.0,1839.0,2010.0,4355204.0,
2478.0,4052.0,1841.0,2008.0,4355208.0,
2478.0,4051.0,1843.0,2008.0,4355212.0,
2480.0,4049.0,1840.0,2011.0,4355216.0,
2480.0,4051.0,1842.0,2011.0,4355220.0,
2482.0,4051.0,1838.0,2014.0,4355223.0,
2478.0,4051.0,1837.0,2017.0,4355227.0,
2478.0,4051.0,1834.0,2017.0,4355231.0,
2481.0,4051.0,1834.0,2021.0,4355235.0,
2482.0,4050.0,1835.0,2023.0,4355239.0,
2482.0,4051.0,1834.0,2029.0,4355242.0,
2480.0,4052.0,1839.0,2034.0,4355247.0,
2474.0,4052.0,1841.0,2032.0,4355251.0,
2480.0,4052.0,1843.0,2036.0,4355255.0,
2483.0,4051.0,1847.0,2039.0,4355259.0,
2481.0,4052.0,1847.0,2046.0,4355263.0,
2479.0,4050.0,1850.0,2050.0,4355267.0,
2478.0,4053.0,1851.0,2053.0,4355270.0,
2479.0,4051.0,1852.0,2055.0,4355274.0,
2481.0,4050.0,1854.0,2060.0,4355278.0,
2481.0,4052.0,1859.0,2065.0,4355282.0,
2479.0,4051.0,1866.0,2065.0,4355286.0,
2478.0,4051.0,1870.0,2072.0,4355289.0,
2478.0,4050.0,1882.0,2074.0,4355293.0,
2481.0,4052.0,1887.0,2080.0,4355297.0,
2481.0,4051.0,1905.0,2083.0,4355303.0,
2479.0,4051.0,1917.0,2084.0,4355306.0,
2476.0,4052.0,1932.0,2087.0,4355310.0,
2480.0,4052.0,1948.0,2089.0,4355314.0,
2481.0,4051.0,1964.0,2090.0,4355318.0,
2481.0,4052.0,1985.0,2091.0,4355322.0,
2480.0,4051.0,2007.0,2095.0,4355326.0,
2477.0,4052.0,2023.0,2098.0,4355329.0,
2479.0,4050.0,2045.0,2096.0,4355333.0,
2481.0,4053.0,2063.0,2098.0,4355337.0,
2482.0,4050.0,2084.0,2098.0,4355341.0,
2480.0,4052.0,2108.0,2101.0,4355345.0,
2478.0,4051.0,2126.0,2101.0,4355348.0,
2479.0,4052.0,2145.0,2102.0,4355352.0,
2480.0,4052.0,2168.0,2103.0,4355356.0,
2481.0,4050.0,2188.0,2104.0,4355360.0,
2480.0,4052.0,2205.0,2107.0,4355364.0,
2478.0,4050.0,2222.0,2106.0,4355368.0,
2477.0,4052.0,2234.0,2109.0,4355371.0,
2480.0,4053.0,2248.0,2108.0,4355375.0,
2481.0,4051.0,2258.0,2107.0,4355379.0,
2481.0,4053.0,2268.0,2108.0,4355383.0,
2479.0,4051.0,2279.0,2106.0,4355387.0,
2478.0,4052.0,2283.0,2107.0,4355390.0,
2480.0,4053.0,2286.0,2108.0,4355394.0,
2481.0,4050.0,2289.0,2105.0,4355398.0,
2482.0,4052.0,2289.0,2105.0,4355402.0,
2479.0,4051.0,2288.0,2105.0,4355406.0,
2479.0,4049.0,2288.0,2106.0,4355410.0,
2480.0,4051.0,2282.0,2103.0,4355413.0,
2481.0,4052.0,2280.0,2103.0,4355417.0,
2483.0,4052.0,2276.0,2105.0,4355421.0,
2477.0,4051.0,2269.0,2104.0,4355425.0,
2478.0,4052.0,2258.0,2104.0,4355429.0,
2478.0,4051.0,2251.0,2102.0,4355433.0,
2481.0,4051.0,2239.0,2105.0,4355436.0,
2481.0,4048.0,2231.0,2105.0,4355440.0,
2481.0,4053.0,2217.0,2100.0,4355444.0,
2477.0,4052.0,2207.0,2101.0,4355448.0,
2479.0,4053.0,2193.0,2099.0,4355452.0,
2479.0,4051.0,2187.0,2096.0,4355456.0,
2481.0,4052.0,2178.0,2098.0,4355459.0,
2479.0,4050.0,2167.0,2094.0,4355463.0,
2478.0,4053.0,2157.0,2094.0,4355467.0,
2478.0,4049.0,2148.0,2092.0,4355471.0,
2479.0,4054.0,2138.0,2092.0,4355475.0,
2482.0,4051.0,2130.0,2087.0,4355478.0,
2482.0,4051.0,2122.0,2083.0,4355482.0,
2480.0,4051.0,2112.0,2082.0,4355486.0,
2478.0,4053.0,2105.0,2082.0,4355490.0,
2480.0,4051.0,2099.0,2077.0,4355494.0,
2481.0,4052.0,2090.0,2076.0,4355498.0,
2482.0,4051.0,2083.0,2075.0,4355501.0,
2480.0,4051.0,2077.0,2070.0,4355505.0,
2478.0,4052.0,2068.0,2069.0,4355509.0,
2480.0,4049.0,2062.0,2068.0,4355513.0,
2480.0,4052.0,2051.0,2067.0,4355517.0,
2482.0,4050.0,2049.0,2064.0,4355521.0,
2482.0,4053.0,2043.0,2064.0,4355524.0,
2478.0,4051.0,2033.0,2061.0,4355528.0,
2480.0,4053.0,2026.0,2063.0,4355532.0,
2479.0,4052.0,2018.0,2059.0,4355536.0,
2482.0,4053.0,2011.0,2060.0,4355540.0,
2481.0,4051.0,2001.0,2058.0,4355544.0,
2478.0,4053.0,1995.0,2058.0,4355547.0,
2478.0,4053.0,1987.0,2058.0,4355551.0,
2479.0,4051.0,1978.0,2057.0,4355555.0,
2482.0,4052.0,1972.0,2057.0,4355559.0,
2481.0,4051.0,1959.0,2056.0,4355563.0,
2479.0,4052.0,1951.0,2056.0,4355567.0,
2479.0,4051.0,1945.0,2054.0,4355570.0,
2483.0,4052.0,1940.0,2057.0,4355574.0,
2482.0,4050.0,1937.0,2053.0,4355578.0,
2481.0,4052.0,1933.0,2057.0,4355582.0,
2480.0,4051.0,1928.0,2052.0,4355586.0,
2477.0,4052.0,1927.0,2053.0,4355590.0,
2478.0,4051.0,1927.0,2053.0,4355593.0,
2480.0,4051.0,1924.0,2054.0,4355597.0,
2482.0,4052.0,1924.0,2054.0,4355601.0,
2480.0,4051.0,1923.0,2053.0,4355605.0,
2479.0,4053.0,1922.0,2055.0,4355609.0,
2478.0,4051.0,1921.0,2052.0,4355612.0,
2480.0,4051.0,1917.0,2052.0,4355616.0,
2482.0,4053.0,1917.0,2052.0,4355620.0,
2480.0,4052.0,1920.0,2051.0,4355624.0,
2479.0,4053.0,1919.0,2052.0,4355628.0,
2477.0,4050.0,1920.0,2049.0,4355631.0,
2479.0,4052.0,1921.0,2051.0,4355635.0,
2481.0,4053.0,1924.0,2050.0,4355639.0,
2481.0,4050.0,1924.0,2048.0,4355643.0,
2480.0,4051.0,1929.0,2051.0,4355647.0,
2477.0,4051.0,1930.0,2050.0,4355650.0,
2477.0,4051.0,1930.0,2047.0,4355654.0,
2481.0,4050.0,1929.0,2047.0,4355658.0,
2482.0,4052.0,1932.0,2048.0,4355662.0,
2479.0,4051.0,1936.0,2046.0,4355666.0,
2478.0,4053.0,1936.0,2048.0,4355669.0,
2477.0,4052.0,1938.0,2050.0,4355673.0,
2481.0,4050.0,1938.0,2047.0,4355677.0,
2482.0,4053.0,1940.0,2047.0,4355681.0,
2480.0,4051.0,1943.0,2044.0,4355684.0,
2478.0,4053.0,1943.0,2045.0,4355688.0,
2479.0,4050.0,1946.0,2042.0,4355692.0,
2480.0,4053.0,1944.0,2043.0,4355696.0,
2482.0,4051.0,1947.0,2039.0,4355700.0,
2481.0,4052.0,1949.0,2042.0,4355704.0,
2479.0,4052.0,1953.0,2037.0,4355708.0,
2478.0,4051.0,1951.0,2038.0,4355711.0,
2479.0,4053.0,1949.0,2037.0,4355715.0,
2481.0,4052.0,1949.0,2034.0,4355719.0,
2480.0,4050.0,1947.0,2032.0,4355723.0,
2479.0,4051.0,1941.0,2034.0,4355727.0,
2478.0,4050.0,1939.0,2031.0,4355730.0,
2479.0,4050.0,1935.0,2029.0,4355734.0,
2481.0,4052.0,1934.0,2030.0,4355738.0,
2482.0,4051.0,1928.0,2030.0,4355742.0,
2480.0,4050.0,1924.0,2027.0,4355746.0,
2478.0,4053.0,1917.0,2027.0,4355749.0,
2477.0,4052.0,1913.0,2028.0,4355753.0,
2480.0,4049.0,1908.0,2028.0,4355757.0,
2482.0,4052.0,1906.0,2029.0,4355761.0,
2481.0,4050.0,1900.0,2027.0,4355765.0,
2478.0,4052.0,1893.0,2026.0,4355769.0,
2478.0,4051.0,1888.0,2025.0,4355772.0,
2481.0,4050.0,1880.0,2026.0,4355776.0,
2480.0,4049.0,1874.0,2024.0,4355780.0,
2481.0,4052.0,1865.0,2025.0,4355784.0,
2478.0,4050.0,1860.0,2026.0,4355788.0,
2477.0,4052.0,1853.0,2025.0,4355791.0,
2479.0,4051.0,1853.0,2025.0,4355795.0,
2479.0,4052.0,1844.0,2024.0,4355799.0,
2481.0,4050.0,1840.0,2019.0,4355803.0,
2479.0,4052.0,1839.0,2021.0,4355807.0,
2478.0,4051.0,1835.0,2018.0,4355811.0,
2476.0,4053.0,1833.0,2019.0,4355814.0,
2481.0,4052.0,1829.0,2017.0,4355818.0,
2481.0,4053.0,1828.0,2018.0,4355822.0,
2479.0,4052.0,1827.0,2020.0,4355826.0,
2479.0,4051.0,1822.0,2015.0,4355830.0,
2478.0,4052.0,1822.0,2018.0,4355834.0,
2480.0,4051.0,1820.0,2014.0,4355838.0,
2482.0,4052.0,1820.0,2017.0,4355841.0,
2480.0,4050.0,1817.0,2015.0,4355845.0,
2480.0,4050.0,1818.0,2014.0,4355849.0,
2478.0,4053.0,1818.0,2014.0,4355853.0,
2481.0,4051.0,1819.0,2014.0,4355857.0,
2481.0,4050.0,1820.0,2013.0,4355861.0,
2481.0,4050.0,1818.0,2013.0,4355864.0,
2478.0,4052.0,1818.0,2014.0,4355868.0,
2477.0,4052.0,1820.0,2014.0,4355872.0,
2479.0,4052.0,1822.0,2011.0,4355876.0,
2482.0,4052.0,1823.0,2014.0,4355880.0,
2481.0,4051.0,1825.0,2011.0,4355884.0,
2479.0,4052.0,1824.0,2014.0,4355887.0,
2477.0,4050.0,1825.0,2012.0,4355891.0,
2481.0,4049.0,1825.0,2012.0,4355895.0,
2481.0,4053.0,1825.0,2013.0,4355899.0,
2481.0,4050.0,1826.0,2011.0,4355903.0,
2478.0,4052.0,1827.0,2012.0,4355907.0,
2478.0,4051.0,1828.0,2012.0,4355910.0,
2479.0,4051.0,1827.0,2012.0,4355914.0,
2480.0,4053.0,1831.0,2012.0,4355918.0,
2481.0,4051.0,1826.0,2011.0,4355922.0,
2480.0,4053.0,1826.0,2010.0,4355926.0,
2478.0,4050.0,1827.0,2011.0,4355930.0,
2479.0,4052.0,1828.0,2012.0,4355933.0,
2480.0,4051.0,1827.0,2012.0,4355937.0,
2481.0,4050.0,1828.0,2011.0,4355941.0,
2481.0,4053.0,1825.0,2012.0,4355945.0,
2478.0,4050.0,1827.0,2009.0,4355949.0,
2478.0,4052.0,1827.0,2013.0,4355952.0,
2479.0,4052.0,1826.0,2014.0,4355956.0,
2482.0,4050.0,1828.0,2011.0,4355960.0,
2481.0,4050.0,1829.0,2012.0,4355964.0,
2478.0,4052.0,1826.0,2012.0,4355968.0,
2477.0,4050.0,1828.0,2012.0,4355972.0,
2479.0,4052.0,1830.0,2013.0,4355975.0,
2481.0,4050.0,1828.0,2012.0,4355979.0,
2482.0,4051.0,1830.0,2013.0,4355983.0,
2479.0,4051.0,1834.0,2014.0,4355987.0,
2478.0,4052.0,1835.0,2014.0,4355991.0,
2478.0,4051.0,1836.0,2015.0,4355994.0,
2481.0,4052.0,1840.0,2016.0,4355998.0,
2481.0,4050.0,1848.0,2013.0,4356002.0,
2480.0,4052.0,1849.0,2016.0,4356006.0,
2478.0,4051.0,1858.0,2012.0,4356010.0,
2478.0,4052.0,1861.0,2015.0,4356013.0,
2480.0,4051.0,1862.0,2015.0,4356017.0,
2482.0,4052.0,1866.0,2014.0,4356021.0,
2480.0,4051.0,1868.0,2011.0,4356025.0,
2479.0,4052.0,1868.0,2012.0,4356029.0,
2478.0,4051.0,1873.0,2011.0,4356033.0,
2479.0,4052.0,1871.0,2013.0,4356036.0,
2481.0,4051.0,1874.0,2012.0,4356040.0,
2481.0,4052.0,1880.0,2013.0,4356044.0,
2478.0,4050.0,1881.0,2012.0,4356048.0,
2478.0,4051.0,1881.0,2013.0,4356052.0,
2478.0,4050.0,1883.0,2014.0,4356056.0,
2481.0,4052.0,1884.0,2015.0,4356060.0,
2481.0,4050.0,1879.0,2018.0,4356064.0,
2478.0,4051.0,1875.0,2019.0,4356068.0,
2477.0,4050.0,1873.0,2021.0,4356071.0,
2479.0,4050.0,1869.0,2023.0,4356075.0,
2481.0,4050.0,1862.0,2025.0,4356079.0,
2482.0,4051.0,1857.0,2026.0,4356083.0,
2479.0,4050.0,1855.0,2029.0,4356087.0,
2477.0,4052.0,1847.0,2033.0,4356090.0,
2478.0,4051.0,1846.0,2037.0,4356094.0,
2480.0,4053.0,1845.0,2041.0,4356098.0,
2482.0,4051.0,1839.0,2044.0,4356102.0,
2480.0,4051.0,1839.0,2050.0,4356106.0,
2478.0,4052.0,1834.0,2052.0,4356110.0,
2479.0,4050.0,1836.0,2056.0,4356113.0,
2480.0,4053.0,1837.0,2060.0,4356117.0,
2482.0,4051.0,1841.0,2061.0,4356121.0,
2481.0,4051.0,1844.0,2064.0,4356125.0,
2478.0,4051.0,1851.0,2069.0,4356129.0,
2478.0,4050.0,1856.0,2068.0,4356132.0,
2479.0,4051.0,1860.0,2072.0,4356136.0,
2480.0,4051.0,1872.0,2072.0,4356140.0,
2481.0,4051.0,1880.0,2077.0,4356144.0,
2479.0,4051.0,1892.0,2079.0,4356148.0,
2477.0,4052.0,1908.0,2081.0,4356152.0,
2476.0,4050.0,1927.0,2080.0,4356155.0,
2480.0,4050.0,1943.0,2081.0,4356159.0,
2481.0,4051.0,1959.0,2090.0,4356163.0,
2479.0,4050.0,1981.0,2087.0,4356167.0,
2477.0,4052.0,1998.0,2092.0,4356171.0,
2478.0,4050.0,2017.0,2089.0,4356175.0,
2481.0,4052.0,2041.0,2094.0,4356178.0,
2481.0,4051.0,2064.0,2095.0,4356182.0,
2480.0,4052.0,2084.0,2098.0,4356186.0,
2479.0,4052.0,2106.0,2095.0,4356190.0,
2480.0,4052.0,2124.0,2099.0,4356194.0,
2480.0,4051.0,2142.0,2100.0,4356197.0,
2481.0,4053.0,2160.0,2100.0,4356201.0,
2484.0,4051.0,2176.0,2102.0,4356205.0,
2479.0,4051.0,2189.0,2103.0,4356209.0,
2477.0,4050.0,2203.0,2104.0,4356213.0,
2480.0,4051.0,2217.0,2103.0,4356216.0,
2482.0,4050.0,2228.0,2103.0,4356220.0,
2482.0,4052.0,2237.0,2106.0,4356224.0,
2480.0,4050.0,2244.0,2104.0,4356228.0,
2478.0,4050.0,2249.0,2107.0,4356232.0,
2479.0,4052.0,2249.0,2105.0,4356236.0,
2482.0,4053.0,2250.0,2105.0,4356240.0,
2481.0,4053.0,2249.0,2106.0,4356244.0,
2478.0,4049.0,2244.0,2105.0,4356249.0,
2477.0,4052.0,2241.0,2105.0,4356253.0,
2479.0,4051.0,2237.0,2103.0,4356256.0,
2481.0,4051.0,2236.0,2102.0,4356260.0,
2481.0,4050.0,2229.0,2103.0,4356264.0,
2480.0,4052.0,2220.0,2104.0,4356268.0,
2478.0,4050.0,2219.0,2103.0,4356272.0,
2479.0,4052.0,2207.0,2104.0,4356276.0,
2481.0,4050.0,2200.0,2101.0,4356279.0,
2481.0,4050.0,2190.0,2099.0,4356283.0,
2480.0,4051.0,2178.0,2099.0,4356287.0,
2478.0,4052.0,2168.0,2100.0,4356291.0,
2478.0,4051.0,2160.0,2097.0,4356295.0,
2480.0,4053.0,2150.0,2096.0,4356299.0,
2482.0,4051.0,2143.0,2093.0,4356302.0,
2480.0,4051.0,2132.0,2092.0,4356306.0,
2479.0,4050.0,2122.0,2089.0,4356310.0,
2478.0,4052.0,2117.0,2088.0,4356314.0,
2479.0,4051.0,2111.0,2087.0,4356318.0,
2480.0,4052.0,2104.0,2085.0,4356321.0,
2481.0,4052.0,2098.0,2083.0,4356325.0,
2479.0,4052.0,2095.0,2081.0,4356329.0,
2478.0,4051.0,2090.0,2080.0,4356333.0,
2482.0,4050.0,2084.0,2080.0,4356337.0,
2481.0,4051.0,2077.0,2076.0,4356340.0,
2480.0,4052.0,2075.0,2077.0,4356344.0,
2479.0,4051.0,2069.0,2074.0,4356348.0,
2474.0,4052.0,2061.0,2071.0,4356352.0,
2479.0,4052.0,2054.0,2072.0,4356357.0,
2481.0,4051.0,2046.0,2067.0,4356361.0,
2482.0,4052.0,2037.0,2067.0,4356365.0,
2478.0,4050.0,2031.0,2065.0,4356369.0,
2477.0,4052.0,2024.0,2065.0,4356373.0,
2479.0,4051.0,2016.0,2064.0,4356377.0,
2481.0,4053.0,2009.0,2067.0,4356381.0,
2481.0,4049.0,2001.0,2062.0,4356385.0,
2479.0,4052.0,1992.0,2065.0,4356388.0,
2478.0,4051.0,1983.0,2065.0,4356392.0,
2479.0,4052.0,1975.0,2063.0,4356396.0,
2481.0,4050.0,1967.0,2060.0,4356400.0,
2481.0,4051.0,1961.0,2063.0,4356404.0,
2479.0,4052.0,1958.0,2060.0,4356408.0,
2475.0,4052.0,1956.0,2059.0,4356412.0,
2479.0,4051.0,1955.0,2059.0,4356416.0,
2482.0,4052.0,1955.0,2057.0,4356421.0,
2481.0,4050.0,1954.0,2056.0,4356425.0,
2479.0,4050.0,1953.0,2056.0,4356429.0,
2478.0,4082.0,1956.0,2056.0,4356433.0,
2480.0,4051.0,1955.0,2054.0,4356438.0,
2482.0,4051.0,1956.0,2055.0,4356442.0,
2480.0,4053.0,1954.0,2053.0,4356446.0,
2480.0,4052.0,1953.0,2052.0,4356450.0,
2478.0,4050.0,1950.0,2052.0,4356454.0,
2479.0,4052.0,1949.0,2050.0,4356458.0,
2483.0,4051.0,1949.0,2052.0,4356462.0,
2482.0,4052.0,1950.0,2051.0,4356466.0,
2480.0,4052.0,1951.0,2052.0,4356470.0,
2478.0,4051.0,1952.0,2050.0,4356474.0,
2480.0,4050.0,1952.0,2053.0,4356478.0,
2481.0,4051.0,1956.0,2050.0,4356482.0,
2481.0,4053.0,1955.0,2051.0,4356485.0,
2479.0,4052.0,1956.0,2052.0,4356489.0,
2478.0,4051.0,1957.0,2049.0,4356493.0,
2479.0,4051.0,1959.0,2049.0,4356497.0,
2482.0,4053.0,1958.0,2052.0,4356501.0,
2482.0,4051.0,1964.0,2052.0,4356505.0,
2479.0,4053.0,1964.0,2051.0,4356508.0,
2478.0,4051.0,1966.0,2049.0,4356512.0,
2479.0,4051.0,1970.0,2047.0,4356516.0,
2482.0,4052.0,1969.0,2047.0,4356520.0,
2481.0,4052.0,1968.0,2047.0,4356524.0,
2480.0,4052.0,1969.0,2047.0,4356527.0,
2478.0,4052.0,1969.0,2045.0,4356531.0,
2478.0,4051.0,1968.0,2046.0,4356535.0,
2479.0,4052.0,1969.0,2045.0,4356539.0,
2481.0,4051.0,1968.0,2041.0,4356543.0,
2481.0,4053.0,1968.0,2042.0,4356546.0,
2479.0,4051.0,1968.0,2038.0,4356550.0,
2478.0,4051.0,1966.0,2040.0,4356554.0,
2480.0,4051.0,1965.0,2037.0,4356558.0,
2481.0,4052.0,1961.0,2038.0,4356562.0,
2481.0,4051.0,1962.0,2037.0,4356565.0,
2479.0,4051.0,1958.0,2037.0,4356569.0,
2478.0,4052.0,1956.0,2037.0,4356573.0,
2478.0,4051.0,1956.0,2034.0,4356577.0,
2483.0,4053.0,1951.0,2035.0,4356580.0,
2481.0,4052.0,1951.0,2035.0,4356584.0,
2480.0,4051.0,1952.0,2032.0,4356588.0,
2478.0,4050.0,1950.0,2030.0,4356592.0,
2478.0,4053.0,1949.0,2033.0,4356596.0,
2481.0,4052.0,1950.0,2027.0,4356599.0,
2481.0,4052.0,1947.0,2028.0,4356603.0,
2480.0,4052.0,1947.0,2026.0,4356607.0,
2477.0,4051.0,1946.0,2023.0,4356611.0,
2475.0,4053.0,1943.0,2026.0,4356615.0,
2480.0,4051.0,1941.0,2022.0,4356619.0,
2482.0,4053.0,1938.0,2023.0,4356622.0,
2481.0,4053.0,1933.0,2022.0,4356626.0,
2479.0,4053.0,1931.0,2021.0,4356630.0,
2478.0,4050.0,1928.0,2019.0,4356634.0,
2480.0,4051.0,1925.0,2021.0,4356638.0,
2480.0,4051.0,1926.0,2018.0,4356642.0,
2481.0,4051.0,1924.0,2017.0,4356645.0,
2479.0,4053.0,1924.0,2018.0,4356649.0,
2478.0,4053.0,1919.0,2019.0,4356653.0,
2479.0,4051.0,1915.0,2018.0,4356657.0,
2482.0,4053.0,1913.0,2019.0,4356661.0,
2481.0,4051.0,1908.0,2016.0,4356665.0,
2480.0,4052.0,1906.0,2019.0,4356669.0,
2478.0,4052.0,1905.0,2015.0,4356672.0,
2479.0,4051.0,1903.0,2017.0,4356676.0,
2481.0,4051.0,1903.0,2019.0,4356680.0,
2481.0,4055.0,1900.0,2018.0,4356684.0,
2479.0,4053.0,1897.0,2019.0,4356688.0,
2479.0,4052.0,1895.0,2020.0,4356691.0,
2478.0,4050.0,1892.0,2021.0,4356695.0,
2480.0,4051.0,1889.0,2022.0,4356699.0,
2482.0,4052.0,1888.0,2018.0,4356703.0,
2484.0,4050.0,1883.0,2019.0,4356707.0,
2480.0,4052.0,1879.0,2017.0,4356710.0,
2478.0,4052.0,1875.0,2018.0,4356714.0,
2479.0,4052.0,1872.0,2017.0,4356718.0,
2482.0,4051.0,1871.0,2018.0,4356722.0,
2479.0,4052.0,1867.0,2018.0,4356726.0,
2479.0,4051.0,1862.0,2018.0,4356730.0,
2478.0,4052.0,1862.0,2019.0,4356734.0,
2480.0,4051.0,1857.0,2016.0,4356738.0,
2482.0,4053.0,1858.0,2016.0,4356741.0,
2480.0,4054.0,1860.0,2015.0,4356745.0,
2480.0,4050.0,1862.0,2013.0,4356749.0,
2476.0,4052.0,1861.0,2016.0,4356753.0,
2479.0,4051.0,1863.0,2016.0,4356757.0,
2481.0,4052.0,1864.0,2017.0,4356761.0,
2481.0,4050.0,1864.0,2013.0,4356764.0,
2482.0,4053.0,1865.0,2017.0,4356768.0,
2479.0,4051.0,1866.0,2014.0,4356772.0,
2479.0,4050.0,1866.0,2014.0,4356776.0,
2481.0,4051.0,1865.0,2012.0,4356780.0,
2482.0,4051.0,1867.0,2014.0,4356783.0,
2480.0,4052.0,1870.0,2013.0,4356787.0,
2477.0,4052.0,1872.0,2010.0,4356791.0,
2478.0,4051.0,1878.0,2011.0,4356795.0,
2480.0,4052.0,1885.0,2009.0,4356799.0,
2482.0,4050.0,1883.0,2010.0,4356802.0,
2481.0,4051.0,1887.0,2010.0,4356806.0,
2479.0,4052.0,1889.0,2011.0,4356810.0,
2477.0,4050.0,1892.0,2009.0,4356814.0,
2479.0,4051.0,1889.0,2009.0,4356818.0,
2482.0,4050.0,1892.0,2009.0,4356821.0,
2481.0,4050.0,1891.0,2007.0,4356825.0,
2479.0,4051.0,1892.0,2010.0,4356830.0,
2478.0,4050.0,1895.0,2010.0,4356834.0,
2479.0,4052.0,1893.0,2010.0,4356838.0,
2481.0,4051.0,1898.0,2010.0,4356842.0,
2483.0,4052.0,1899.0,2012.0,4356845.0,
2479.0,4053.0,1902.0,2011.0,4356849.0,
2478.0,4051.0,1905.0,2009.0,4356853.0,
2479.0,4052.0,1905.0,2010.0,4356857.0,
2482.0,4050.0,1908.0,2011.0,4356861.0,
2482.0,4053.0,1907.0,2011.0,4356865.0,
2481.0,4050.0,1909.0,2008.0,4356868.0,
2479.0,4052.0,1908.0,2011.0,4356872.0,
2478.0,4051.0,1906.0,2011.0,4356876.0,
2480.0,4053.0,1903.0,2009.0,4356880.0,
2482.0,4051.0,1907.0,2009.0,4356884.0,
2481.0,4053.0,1900.0,2010.0,4356888.0,
2478.0,4050.0,1897.0,2012.0,4356891.0,
2479.0,4050.0,1894.0,2010.0,4356895.0,
2480.0,4050.0,1891.0,2013.0,4356899.0,
2482.0,4050.0,1887.0,2016.0,4356903.0,
2481.0,4051.0,1884.0,2017.0,4356907.0,
2479.0,4052.0,1881.0,2017.0,4356911.0,
2477.0,4051.0,1876.0,2019.0,4356914.0,
2479.0,4050.0,1873.0,2021.0,4356918.0,
2481.0,4050.0,1871.0,2025.0,4356922.0,
2481.0,4051.0,1870.0,2028.0,4356926.0,
2479.0,4051.0,1870.0,2033.0,4356930.0,
2478.0,4052.0,1869.0,2033.0,4356934.0,
2479.0,4052.0,1869.0,2039.0,4356937.0,
2481.0,4050.0,1870.0,2041.0,4356941.0,
2481.0,4052.0,1873.0,2045.0,4356945.0,
2480.0,4050.0,1877.0,2047.0,4356949.0,
2478.0,4052.0,1882.0,2052.0,4356953.0,
2478.0,4051.0,1886.0,2055.0,4356957.0,
2481.0,4053.0,1894.0,2057.0,4356960.0,
2481.0,4050.0,1901.0,2061.0,4356964.0,
2480.0,4051.0,1910.0,2061.0,4356968.0,
2480.0,4053.0,1920.0,2068.0,4356972.0,
2477.0,4052.0,1931.0,2070.0,4356976.0,
2481.0,4052.0,1945.0,2074.0,4356979.0,
2481.0,4051.0,1961.0,2076.0,4356983.0,
2481.0,4052.0,1974.0,2079.0,4356987.0,
2478.0,4051.0,1988.0,2078.0,4356991.0,
2479.0,4052.0,2002.0,2085.0,4356995.0,
2480.0,4050.0,2020.0,2085.0,4356999.0,
2482.0,4051.0,2035.0,2090.0,4357002.0,
2481.0,4051.0,2057.0,2090.0,4357006.0,
2480.0,4052.0,2075.0,2094.0,4357010.0,
2478.0,4052.0,2095.0,2095.0,4357014.0,
2480.0,4051.0,2115.0,2097.0,4357018.0,
2480.0,4052.0,2134.0,2099.0,4357022.0,
2481.0,4082.0,2152.0,2099.0,4357025.0,
2480.0,4050.0,2173.0,2102.0,4357029.0,
2478.0,4052.0,2190.0,2101.0,4357033.0,
2478.0,4051.0,2206.0,2102.0,4357037.0,
2481.0,4052.0,2223.0,2103.0,4357041.0,
2482.0,4051.0,2237.0,2102.0,4357045.0,
2480.0,4052.0,2251.0,2104.0,4357048.0,
2478.0,4052.0,2263.0,2105.0,4357052.0,
2479.0,4052.0,2275.0,2105.0,4357056.0,
2479.0,4050.0,2281.0,2105.0,4357060.0,
2483.0,4052.0,2286.0,2108.0,4357064.0,
2482.0,4083.0,2290.0,2104.0,4357067.0,
2479.0,4051.0,2293.0,2104.0,4357071.0,
2479.0,4051.0,2293.0,2105.0,4357075.0,
2480.0,4052.0,2294.0,2106.0,4357079.0,
2481.0,4052.0,2289.0,2105.0,4357083.0,
2481.0,4050.0,2288.0,2107.0,4357087.0,
2480.0,4053.0,2283.0,2106.0,4357090.0,
2478.0,4051.0,2274.0,2105.0,4357094.0,
2480.0,4053.0,2267.0,2106.0,4357098.0,
2482.0,4053.0,2260.0,2105.0,4357102.0,
2480.0,4050.0,2249.0,2103.0,4357106.0,
2479.0,4050.0,2240.0,2101.0,4357110.0,
2478.0,4053.0,2229.0,2099.0,4357114.0,
2479.0,4051.0,2221.0,2097.0,4357118.0,
2483.0,4052.0,2206.0,2098.0,4357121.0,
2482.0,4053.0,2198.0,2094.0,4357125.0,
2480.0,4051.0,2184.0,2093.0,4357129.0,
2478.0,4052.0,2171.0,2092.0,4357133.0,
2479.0,4051.0,2162.0,2088.0,4357137.0,
2481.0,4053.0,2151.0,2090.0,4357141.0,
2482.0,4051.0,2139.0,2088.0,4357144.0,
2481.0,4052.0,2128.0,2081.0,4357148.0,
2476.0,4050.0,2116.0,2079.0,4357152.0,
2478.0,4052.0,2105.0,2082.0,4357156.0,
2480.0,4051.0,2096.0,2079.0,4357160.0,
2482.0,4052.0,2084.0,2077.0,4357163.0,
2481.0,4049.0,2076.0,2074.0,4357167.0,
2479.0,4052.0,2063.0,2072.0,4357171.0,
2478.0,4051.0,2056.0,2071.0,4357175.0,
2479.0,4052.0,2048.0,2072.0,4357179.0,
2481.0,4052.0,2041.0,2069.0,4357183.0,
2481.0,4052.0,2033.0,2070.0,4357187.0,
2479.0,4052.0,2028.0,2066.0,4357190.0,
2477.0,4052.0,2021.0,2063.0,4357194.0,
2479.0,4051.0,2019.0,2059.0,4357198.0,
2482.0,4050.0,2016.0,2060.0,4357202.0,
2480.0,4053.0,2013.0,2060.0,4357206.0,
2480.0,4051.0,2012.0,2056.0,4357210.0,
2478.0,4052.0,2012.0,2058.0,4357213.0,
2478.0,4053.0,2011.0,2055.0,4357217.0,
2481.0,4050.0,2010.0,2054.0,4357221.0,
2481.0,4052.0,2005.0,2055.0,4357225.0,
2482.0,4052.0,2001.0,2051.0,4357229.0,
2478.0,4052.0,1998.0,2050.0,4357232.0,
2478.0,4052.0,1993.0,2049.0,4357236.0,
2480.0,4052.0,1992.0,2049.0,4357240.0,
2482.0,4051.0,1987.0,2047.0,4357244.0,
2481.0,4051.0,1985.0,2048.0,4357248.0,
2479.0,4051.0,1983.0,2046.0,4357252.0,
2477.0,4053.0,1983.0,2049.0,4357255.0,
2480.0,4052.0,1978.0,2047.0,4357259.0,
2481.0,4052.0,1974.0,2045.0,4357263.0,
2482.0,4052.0,1974.0,2047.0,4357267.0,
2481.0,4050.0,1975.0,2048.0,4357271.0,
2478.0,4052.0,1972.0,2048.0,4357275.0,
2480.0,4050.0,1970.0,2046.0,4357278.0,
2481.0,4052.0,1973.0,2048.0,4357282.0,
2481.0,4049.0,1970.0,2049.0,4357286.0,
2480.0,4052.0,1968.0,2050.0,4357290.0,
2478.0,4051.0,1968.0,2047.0,4357294.0,
2478.0,4052.0,1969.0,2051.0,4357297.0,
2482.0,4054.0,1967.0,2052.0,4357301.0,
2481.0,4051.0,1970.0,2052.0,4357305.0,
2480.0,4052.0,1968.0,2052.0,4357309.0,
2479.0,4051.0,1971.0,2052.0,4357313.0,
2478.0,4053.0,1976.0,2052.0,4357317.0,
2481.0,4052.0,1982.0,2052.0,4357321.0,
2482.0,4052.0,1988.0,2055.0,4357324.0,
2480.0,4052.0,1991.0,2055.0,4357328.0,
2478.0,4049.0,2002.0,2054.0,4357333.0,
2479.0,4050.0,2008.0,2052.0,4357337.0,
2481.0,4052.0,2014.0,2055.0,4357341.0,
2481.0,4050.0,2021.0,2054.0,4357346.0,
2480.0,4050.0,2026.0,2052.0,4357350.0,
2478.0,4051.0,2027.0,2053.0,4357354.0,
2479.0,4051.0,2031.0,2051.0,4357358.0,
2481.0,4053.0,2033.0,2051.0,4357362.0,
2480.0,4052.0,2034.0,2048.0,4357366.0,
2480.0,4051.0,2033.0,2045.0,4357370.0,
2478.0,4050.0,2032.0,2046.0,4357374.0,
2479.0,4051.0,2031.0,2043.0,4357378.0,
2481.0,4053.0,2030.0,2041.0,4357382.0,
2481.0,4051.0,2029.0,2041.0,4357386.0,
2480.0,4053.0,2028.0,2039.0,4357390.0,
2478.0,4051.0,2028.0,2037.0,4357393.0,
2479.0,4053.0,2029.0,2034.0,4357397.0,
2481.0,4052.0,2029.0,2033.0,4357401.0,
2481.0,4053.0,2029.0,2033.0,4357405.0,
2480.0,4051.0,2028.0,2029.0,4357409.0,
2479.0,4053.0,2029.0,2029.0,4357412.0,
2478.0,4050.0,2028.0,2028.0,4357416.0,
2481.0,4051.0,2024.0,2027.0,4357420.0,
2481.0,4051.0,2025.0,2023.0,4357424.0,
2481.0,4053.0,2021.0,2025.0,4357428.0,
2478.0,4052.0,2014.0,2023.0,4357432.0,
2478.0,4050.0,2005.0,2021.0,4357436.0,
2483.0,4052.0,1997.0,2019.0,4357440.0,
2482.0,4052.0,1989.0,2018.0,4357444.0,
2481.0,4051.0,1981.0,2019.0,4357448.0,
2479.0,4053.0,1975.0,2017.0,4357452.0,
2478.0,4051.0,1968.0,2016.0,4357456.0,
2479.0,4053.0,1961.0,2019.0,4357460.0,
2482.0,4051.0,1955.0,2018.0,4357463.0,
2481.0,4053.0,1948.0,2017.0,4357467.0,
2479.0,4050.0,1946.0,2015.0,4357471.0,
2477.0,4051.0,1940.0,2012.0,4357475.0,
2479.0,4052.0,1939.0,2016.0,4357479.0,
2482.0,4051.0,1938.0,2016.0,4357483.0,
2481.0,4053.0,1935.0,2019.0,4357487.0,
2481.0,4051.0,1934.0,2017.0,4357490.0,
2479.0,4050.0,1928.0,2018.0,4357494.0,
2480.0,4050.0,1924.0,2018.0,4357498.0,
2480.0,4051.0,1920.0,2017.0,4357502.0,
2481.0,4051.0,1913.0,2018.0,4357506.0,
2480.0,4051.0,1907.0,2016.0,4357509.0,
2479.0,4052.0,1901.0,2018.0,4357513.0,
2478.0,4052.0,1896.0,2017.0,4357517.0,
2481.0,4052.0,1891.0,2016.0,4357521.0,
2481.0,4051.0,1889.0,2015.0,4357525.0,
2481.0,4052.0,1884.0,2016.0,4357528.0,
2479.0,4051.0,1883.0,2015.0,4357532.0,
2479.0,4050.0,1879.0,2014.0,4357536.0,
2480.0,4053.0,1879.0,2015.0,4357540.0,
2481.0,4050.0,1881.0,2014.0,4357544.0,
2482.0,4051.0,1885.0,2014.0,4357547.0,
2479.0,4050.0,1887.0,2014.0,4357551.0,
2477.0,4050.0,1891.0,2014.0,4357555.0,
2478.0,4053.0,1893.0,2017.0,4357559.0,
2481.0,4051.0,1896.0,2014.0,4357563.0,
2482.0,4052.0,1899.0,2015.0,4357567.0,
2479.0,4051.0,1901.0,2015.0,4357570.0,
2479.0,4052.0,1900.0,2016.0,4357574.0,
2477.0,4051.0,1905.0,2018.0,4357578.0,
2480.0,4050.0,1903.0,2016.0,4357582.0,
2483.0,4052.0,1905.0,2018.0,4357586.0,
2481.0,4051.0,1905.0,2016.0,4357590.0,
2477.0,4052.0,1903.0,2020.0,4357593.0,
2479.0,4052.0,1904.0,2016.0,4357597.0,
2481.0,4053.0,1906.0,2016.0,4357601.0,
2481.0,4052.0,1907.0,2016.0,4357605.0,
2480.0,4052.0,1907.0,2015.0,4357609.0,
2479.0,4050.0,1909.0,2016.0,4357613.0,
2476.0,4053.0,1908.0,2016.0,4357616.0,
2480.0,4050.0,1910.0,2013.0,4357620.0,
2481.0,4052.0,1909.0,2016.0,4357624.0,
2482.0,4053.0,1911.0,2014.0,4357628.0,
2482.0,4052.0,1910.0,2012.0,4357632.0,
2478.0,4052.0,1908.0,2012.0,4357635.0,
2479.0,4053.0,1905.0,2012.0,4357639.0,
2481.0,4051.0,1911.0,2013.0,4357643.0,
2482.0,4052.0,1912.0,2015.0,4357647.0,
2481.0,4052.0,1910.0,2013.0,4357651.0,
2478.0,4053.0,1912.0,2010.0,4357655.0,
2479.0,4052.0,1912.0,2013.0,4357659.0,
2481.0,4050.0,1910.0,2012.0,4357662.0,
2482.0,4051.0,1911.0,2012.0,4357666.0,
2480.0,4052.0,1910.0,2012.0,4357670.0,
2478.0,4051.0,1911.0,2012.0,4357674.0,
2480.0,4052.0,1910.0,2012.0,4357678.0,
2481.0,4051.0,1910.0,2011.0,4357682.0,
2484.0,4051.0,1908.0,2014.0,4357685.0,
2481.0,4051.0,1912.0,2014.0,4357689.0,
2480.0,4051.0,1911.0,2015.0,4357693.0,
2477.0,4050.0,1912.0,2013.0,4357697.0,
2480.0,4052.0,1910.0,2017.0,4357701.0,
2481.0,4050.0,1914.0,2019.0,4357705.0,
2480.0,4052.0,1916.0,2023.0,4357708.0,
2479.0,4052.0,1917.0,2023.0,4357712.0,
2478.0,4053.0,1919.0,2028.0,4357716.0,
2480.0,4051.0,1922.0,2027.0,4357720.0,
2483.0,4053.0,1922.0,2032.0,4357724.0,
2481.0,4051.0,1926.0,2034.0,4357729.0,
2479.0,4050.0,1927.0,2034.0,4357732.0,
2477.0,4052.0,1928.0,2043.0,4357736.0,
2480.0,4051.0,1932.0,2039.0,4357740.0,
2482.0,4051.0,1933.0,2047.0,4357744.0,
2481.0,4050.0,1935.0,2048.0,4357748.0,
2478.0,4052.0,1935.0,2052.0,4357752.0,
2477.0,4052.0,1933.0,2054.0,4357756.0,
2479.0,4050.0,1937.0,2056.0,4357760.0,
2480.0,4051.0,1937.0,2058.0,4357764.0,
2481.0,4051.0,1942.0,2061.0,4357768.0,
2480.0,4050.0,1948.0,2062.0,4357772.0,
2478.0,4051.0,1954.0,2064.0,4357776.0,
2480.0,4051.0,1960.0,2065.0,4357780.0,
2481.0,4050.0,1968.0,2071.0,4357784.0,
2482.0,4053.0,1981.0,2073.0,4357789.0,
2478.0,4051.0,1994.0,2072.0,4357793.0,
2478.0,4053.0,2009.0,2076.0,4357797.0,
2480.0,4051.0,2024.0,2076.0,4357801.0,
2482.0,4051.0,2042.0,2080.0,4357805.0,
2481.0,4051.0,2062.0,2078.0,4357809.0,
2479.0,4052.0,2080.0,2081.0,4357813.0,
2477.0,4050.0,2098.0,2081.0,4357817.0,
2480.0,4052.0,2115.0,2082.0,4357821.0,
2481.0,4051.0,2132.0,2084.0,4357824.0,
2482.0,4051.0,2146.0,2083.0,4357828.0,
2480.0,4051.0,2162.0,2085.0,4357832.0,
2478.0,4052.0,2177.0,2087.0,4357836.0,
2478.0,4050.0,2188.0,2084.0,4357840.0,
2482.0,4053.0,2194.0,2087.0,4357844.0,
2482.0,4050.0,2202.0,2087.0,4357847.0,
2481.0,4050.0,2207.0,2085.0,4357851.0,
2479.0,4051.0,2208.0,2085.0,4357855.0,
2479.0,4053.0,2215.0,2091.0,4357859.0,
2480.0,4050.0,2219.0,2085.0,4357863.0,
2481.0,4053.0,2225.0,2091.0,4357866.0,
2480.0,4052.0,2231.0,2093.0,4357870.0,
2479.0,4050.0,2234.0,2090.0,4357874.0,
2478.0,4050.0,2233.0,2090.0,4357878.0,
2481.0,4052.0,2236.0,2092.0,4357882.0,
2481.0,4050.0,2235.0,2091.0,4357886.0,
2480.0,4052.0,2229.0,2093.0,4357889.0,
2478.0,4051.0,2227.0,2088.0,4357893.0,
2478.0,4051.0,2220.0,2089.0,4357897.0,
2480.0,4052.0,2212.0,2090.0,4357901.0,
2481.0,4050.0,2206.0,2089.0,4357905.0,
2482.0,4053.0,2195.0,2086.0,4357908.0,
2480.0,4051.0,2185.0,2085.0,4357912.0,
2478.0,4053.0,2176.0,2085.0,4357916.0,
2479.0,4050.0,2163.0,2083.0,4357920.0,
2481.0,4053.0,2151.0,2080.0,4357924.0,
2481.0,4050.0,2138.0,2079.0,4357928.0,
2479.0,4052.0,2122.0,2079.0,4357932.0,
2478.0,4051.0,2117.0,2075.0,4357935.0,
2478.0,4051.0,2105.0,2075.0,4357939.0,
2481.0,4050.0,2096.0,2070.0,4357943.0,
2482.0,4051.0,2083.0,2070.0,4357947.0,
2480.0,4051.0,2075.0,2069.0,4357951.0,
2478.0,4053.0,2066.0,2068.0,4357954.0,
2477.0,4052.0,2060.0,2064.0,4357958.0,
2480.0,4051.0,2048.0,2062.0,4357962.0,
2481.0,4050.0,2041.0,2060.0,4357966.0,
2481.0,4052.0,2031.0,2055.0,4357970.0,
2478.0,4052.0,2026.0,2054.0,4357974.0,
2478.0,4053.0,2018.0,2056.0,4357977.0,
2480.0,4052.0,2011.0,2052.0,4357981.0,
2482.0,4052.0,2003.0,2051.0,4357985.0,
2481.0,4052.0,1997.0,2050.0,4357989.0,
2480.0,4051.0,1991.0,2051.0,4357993.0,
2478.0,4051.0,1986.0,2047.0,4357997.0,
2480.0,4051.0,1980.0,2048.0,4358001.0,
2482.0,4052.0,1975.0,2047.0,4358004.0,
2482.0,4053.0,1967.0,2048.0,4358008.0,
2479.0,4051.0,1962.0,2044.0,4358012.0,
2478.0,4051.0,1960.0,2044.0,4358016.0,
2479.0,4052.0,1958.0,2044.0,4358020.0,
2481.0,4051.0,1955.0,2042.0,4358024.0,
2482.0,4052.0,1954.0,2044.0,4358028.0,
2480.0,4051.0,1954.0,2044.0,4358031.0,
2478.0,4051.0,1953.0,2045.0,4358035.0,
2478.0,4051.0,1954.0,2045.0,4358039.0,
2481.0,4052.0,1954.0,2045.0,4358043.0,
2482.0,4050.0,1959.0,2043.0,4358047.0,
2481.0,4053.0,1959.0,2046.0,4358050.0,
2479.0,4052.0,1962.0,2042.0,4358054.0,
2478.0,4052.0,1966.0,2043.0,4358058.0,
2480.0,4052.0,1964.0,2045.0,4358062.0,
2482.0,4050.0,1967.0,2042.0,4358066.0,
2480.0,4052.0,1964.0,2045.0,4358069.0,
2479.0,4049.0,1964.0,2040.0,4358073.0,
2478.0,4051.0,1962.0,2042.0,4358077.0,
2480.0,4052.0,1962.0,2045.0,4358081.0,
2481.0,4051.0,1963.0,2043.0,4358085.0,
2482.0,4053.0,1963.0,2043.0,4358088.0,
2480.0,4050.0,1965.0,2040.0,4358092.0,
2478.0,4050.0,1970.0,2044.0,4358096.0,
2479.0,4050.0,1974.0,2043.0,4358100.0,
2483.0,4052.0,1976.0,2046.0,4358104.0,
2482.0,4051.0,1982.0,2042.0,4358108.0,
2481.0,4053.0,1983.0,2043.0,4358111.0,
2478.0,4052.0,1983.0,2043.0,4358115.0,
2479.0,4052.0,1984.0,2041.0,4358119.0,
2480.0,4051.0,1987.0,2040.0,4358123.0,
2483.0,4052.0,1991.0,2043.0,4358127.0,
2481.0,4050.0,1992.0,2039.0,4358131.0,
2479.0,4052.0,1989.0,2042.0,4358135.0,
2478.0,4050.0,1993.0,2037.0,4358138.0,
2480.0,4051.0,1994.0,2038.0,4358142.0,
2482.0,4051.0,2000.0,2037.0,4358146.0,
2481.0,4054.0,2001.0,2039.0,4358150.0,
2479.0,4051.0,2008.0,2037.0,4358154.0,
2478.0,4053.0,2011.0,2038.0,4358157.0,
2479.0,4051.0,2014.0,2035.0,4358161.0,
2481.0,4051.0,2017.0,2035.0,4358165.0,
2482.0,4053.0,2024.0,2036.0,4358169.0,
2479.0,4049.0,2024.0,2033.0,4358173.0,
2479.0,4053.0,2024.0,2032.0,4358176.0,
2479.0,4051.0,2020.0,2032.0,4358180.0,
2481.0,4053.0,2016.0,2031.0,4358184.0,
2483.0,4051.0,2013.0,2029.0,4358188.0,
2480.0,4053.0,2009.0,2031.0,4358192.0,
2478.0,4052.0,2007.0,2027.0,4358196.0,
2479.0,4052.0,2002.0,2029.0,4358200.0,
2481.0,4051.0,1996.0,2027.0,4358203.0,
2482.0,4053.0,1991.0,2026.0,4358207.0,
2480.0,4050.0,1985.0,2025.0,4358211.0,
2478.0,4051.0,1983.0,2024.0,4358215.0,
2478.0,4051.0,1978.0,2023.0,4358219.0,
2480.0,4052.0,1972.0,2023.0,4358223.0,
2481.0,4050.0,1966.0,2020.0,4358226.0,
2481.0,4052.0,1963.0,2022.0,4358230.0,
2479.0,4050.0,1958.0,2019.0,4358234.0,
2478.0,4053.0,1954.0,2020.0,4358238.0,
2480.0,4051.0,1950.0,2020.0,4358242.0,
2482.0,4053.0,1948.0,2020.0,4358245.0,
2481.0,4052.0,1945.0,2018.0,4358249.0,
2479.0,4051.0,1946.0,2018.0,4358253.0,
2478.0,4052.0,1945.0,2016.0,4358257.0,
2480.0,4051.0,1946.0,2018.0,4358261.0,
2480.0,4051.0,1947.0,2015.0,4358264.0,
2482.0,4051.0,1939.0,2015.0,4358268.0,
2481.0,4053.0,1940.0,2017.0,4358272.0,
2478.0,4053.0,1932.0,2012.0,4358276.0,
2479.0,4051.0,1928.0,2013.0,4358280.0,
2482.0,4051.0,1926.0,2014.0,4358284.0,
2482.0,4050.0,1924.0,2011.0,4358288.0,
2480.0,4052.0,1923.0,2012.0,4358291.0,
2480.0,4052.0,1919.0,2012.0,4358295.0,
2478.0,4052.0,1919.0,2012.0,4358299.0,
2480.0,4050.0,1919.0,2010.0,4358303.0,
2481.0,4052.0,1917.0,2011.0,4358307.0,
2481.0,4051.0,1917.0,2008.0,4358310.0,
2478.0,4051.0,1916.0,2008.0,4358314.0,
2479.0,4052.0,1915.0,2009.0,4358318.0,
2479.0,4050.0,1910.0,2007.0,4358322.0,
2481.0,4052.0,1910.0,2008.0,4358326.0,
2482.0,4051.0,1910.0,2007.0,4358329.0,
2479.0,4053.0,1913.0,2009.0,4358333.0,
2478.0,4051.0,1912.0,2007.0,4358337.0,
2479.0,4050.0,1911.0,2007.0,4358341.0,
2481.0,4053.0,1908.0,2007.0,4358345.0,
2481.0,4051.0,1911.0,2008.0,4358349.0,
2479.0,4052.0,1913.0,2007.0,4358352.0,
2477.0,4052.0,1914.0,2008.0,4358356.0,
2479.0,4052.0,1916.0,2007.0,4358360.0,
2481.0,4050.0,1922.0,2004.0,4358364.0,
2482.0,4052.0,1923.0,2007.0,4358368.0,
2480.0,4049.0,1925.0,2004.0,4358372.0,
2479.0,4052.0,1930.0,2007.0,4358376.0,
2479.0,4051.0,1931.0,2006.0,4358380.0,
2481.0,4052.0,1932.0,2009.0,4358383.0,
2482.0,4051.0,1936.0,2005.0,4358387.0,
2481.0,4051.0,1937.0,2002.0,4358391.0,
2477.0,4050.0,1938.0,2005.0,4358395.0,
2478.0,4051.0,1937.0,2004.0,4358399.0,
2481.0,4051.0,1936.0,2004.0,4358403.0,
2482.0,4051.0,1937.0,2005.0,4358407.0,
2481.0,4052.0,1937.0,2007.0,4358411.0,
2478.0,4052.0,1939.0,2006.0,4358415.0,
2478.0,4051.0,1937.0,2006.0,4358419.0,
2482.0,4050.0,1937.0,2010.0,4358423.0,
2482.0,4053.0,1937.0,2009.0,4358427.0,
2481.0,4051.0,1938.0,2006.0,4358431.0,
2477.0,4050.0,1938.0,2009.0,4358435.0,
2478.0,4051.0,1938.0,2009.0,4358439.0,
2479.0,4052.0,1935.0,2011.0,4358442.0,
2481.0,4051.0,1938.0,2009.0,4358446.0,
2482.0,4052.0,1936.0,2011.0,4358450.0,
2479.0,4050.0,1933.0,2012.0,4358454.0,
2478.0,4052.0,1930.0,2012.0,4358458.0,
2480.0,4052.0,1929.0,2014.0,4358462.0,
2484.0,4051.0,1926.0,2014.0,4358466.0,
2481.0,4052.0,1925.0,2018.0,4358469.0,
2478.0,4053.0,1922.0,2018.0,4358473.0,
2477.0,4051.0,1917.0,2017.0,4358477.0,
2479.0,4050.0,1912.0,2023.0,4358481.0,
2481.0,4051.0,1913.0,2024.0,4358485.0,
2481.0,4052.0,1910.0,2026.0,4358489.0,
2479.0,4053.0,1909.0,2030.0,4358493.0,
2477.0,4051.0,1908.0,2030.0,4358497.0,
2479.0,4051.0,1907.0,2034.0,4358501.0,
2481.0,4050.0,1909.0,2035.0,4358505.0,
2480.0,4051.0,1912.0,2041.0,4358509.0,
2480.0,4052.0,1915.0,2046.0,4358513.0,
2477.0,4051.0,1920.0,2045.0,4358517.0,
2478.0,4051.0,1924.0,2052.0,4358521.0,
2483.0,4051.0,1935.0,2054.0,4358524.0,
2482.0,4051.0,1942.0,2055.0,4358528.0,
2480.0,4052.0,1954.0,2061.0,4358532.0,
2479.0,4052.0,1963.0,2064.0,4358536.0,
2478.0,4051.0,1975.0,2067.0,4358540.0,
2480.0,4052.0,1988.0,2071.0,4358543.0,
2482.0,4051.0,1999.0,2071.0,4358547.0,
2480.0,4053.0,2010.0,2076.0,4358551.0,
2478.0,4049.0,2024.0,2077.0,4358555.0,
2482.0,4050.0,2038.0,2078.0,4358559.0,
2480.0,4052.0,2050.0,2082.0,4358563.0,
2483.0,4052.0,2062.0,2083.0,4358567.0,
2481.0,4053.0,2075.0,2086.0,4358570.0,
2479.0,4051.0,2090.0,2084.0,4358574.0,
2478.0,4050.0,2105.0,2085.0,4358578.0,
2480.0,4052.0,2119.0,2088.0,4358582.0,
2481.0,4051.0,2133.0,2087.0,4358586.0,
2481.0,4051.0,2146.0,2091.0,4358589.0,
2479.0,4052.0,2161.0,2089.0,4358593.0,
2478.0,4052.0,2175.0,2094.0,4358597.0,
2479.0,4051.0,2187.0,2093.0,4358601.0,
2482.0,4051.0,2200.0,2096.0,4358605.0,
2481.0,4050.0,2212.0,2095.0,4358608.0,
2482.0,4051.0,2223.0,2097.0,4358612.0,
2478.0,4050.0,2233.0,2092.0,4358616.0,
2478.0,4052.0,2247.0,2096.0,4358620.0,
2481.0,4051.0,2257.0,2094.0,4358624.0,
2482.0,4052.0,2262.0,2096.0,4358628.0,
2480.0,4050.0,2270.0,2095.0,4358632.0,
2480.0,4052.0,2274.0,2096.0,4358635.0,
2478.0,4052.0,2275.0,2094.0,4358639.0,
2480.0,4052.0,2275.0,2096.0,4358643.0,
2482.0,4051.0,2277.0,2093.0,4358647.0,
2481.0,4053.0,2274.0,2096.0,4358650.0,
2479.0,4053.0,2271.0,2096.0,4358654.0,
2477.0,4051.0,2269.0,2094.0,4358658.0,
2479.0,4052.0,2264.0,2095.0,4358662.0,
2482.0,4051.0,2262.0,2093.0,4358666.0,
2477.0,4052.0,2252.0,2096.0,4358670.0,
2480.0,4053.0,2248.0,2093.0,4358674.0,
2478.0,4051.0,2244.0,2092.0,4358677.0,
2478.0,4050.0,2237.0,2092.0,4358681.0,
2481.0,4052.0,2231.0,2092.0,4358685.0,
2483.0,4051.0,2225.0,2089.0,4358689.0,
2480.0,4052.0,2215.0,2090.0,4358693.0,
2478.0,4054.0,2208.0,2086.0,4358696.0,
2478.0,4049.0,2199.0,2088.0,4358700.0,
2480.0,4052.0,2185.0,2088.0,4358704.0,
2482.0,4051.0,2177.0,2086.0,4358708.0,
2481.0,4051.0,2166.0,2084.0,4358712.0,
2479.0,4050.0,2155.0,2078.0,4358715.0,
2478.0,4052.0,2151.0,2079.0,4358719.0,
2480.0,4052.0,2142.0,2079.0,4358723.0,
2482.0,4050.0,2134.0,2073.0,4358727.0,
2482.0,4053.0,2126.0,2072.0,4358731.0,
2479.0,4050.0,2121.0,2068.0,4358735.0,
2477.0,4051.0,2114.0,2068.0,4358738.0,
2479.0,4053.0,2107.0,2065.0,4358742.0,
2482.0,4051.0,2105.0,2065.0,4358746.0,
2482.0,4051.0,2099.0,2060.0,4358750.0,
2480.0,4051.0,2095.0,2060.0,4358754.0,
2478.0,4051.0,2092.0,2057.0,4358758.0,
2478.0,4052.0,2086.0,2055.0,4358762.0,
2482.0,4051.0,2081.0,2054.0,4358765.0,
2482.0,4050.0,2080.0,2052.0,4358769.0,
2479.0,4053.0,2075.0,2053.0,4358773.0,
2479.0,4052.0,2072.0,2050.0,4358777.0,
2479.0,4052.0,2065.0,2049.0,4358781.0,
2481.0,4051.0,2059.0,2046.0,4358785.0,
2482.0,4052.0,2054.0,2048.0,4358789.0,
2480.0,4050.0,2049.0,2046.0,4358792.0,
2480.0,4053.0,2041.0,2047.0,4358796.0,
2479.0,4052.0,2035.0,2045.0,4358800.0,
2481.0,4052.0,2032.0,2046.0,4358804.0,
2482.0,4052.0,2030.0,2045.0,4358808.0,
2480.0,4051.0,2025.0,2042.0,4358812.0,
2478.0,4052.0,2022.0,2045.0,4358816.0,
2478.0,4051.0,2019.0,2046.0,4358819.0,
2480.0,4051.0,2015.0,2042.0,4358823.0,
2481.0,4051.0,2016.0,2042.0,4358827.0,
2481.0,4051.0,2013.0,2042.0,4358831.0,
2479.0,4050.0,2007.0,2043.0,4358835.0,
2477.0,4051.0,2004.0,2040.0,4358839.0,
2479.0,4052.0,2004.0,2041.0,4358842.0,
2483.0,4052.0,2003.0,2040.0,4358846.0,
2482.0,4050.0,2001.0,2038.0,4358850.0,
2479.0,4054.0,2003.0,2044.0,4358854.0,
2478.0,4051.0,2003.0,2041.0,4358858.0,
2479.0,4052.0,2006.0,2039.0,4358861.0,
2481.0,4051.0,2006.0,2041.0,4358865.0,
2482.0,4051.0,2009.0,2042.0,4358869.0,
2479.0,4052.0,2007.0,2041.0,4358873.0,
2479.0,4051.0,2010.0,2038.0,4358877.0,
2479.0,4051.0,2009.0,2040.0,4358880.0,
2481.0,4052.0,2010.0,2041.0,4358884.0,
2481.0,4050.0,2013.0,2040.0,4358888.0,
2481.0,4051.0,2015.0,2038.0,4358892.0,
2481.0,4050.0,2017.0,2040.0,4358896.0,
2478.0,4052.0,2020.0,2042.0,4358900.0,
2481.0,4051.0,2022.0,2039.0,4358904.0,
2481.0,4052.0,2025.0,2041.0,4358907.0,
2481.0,4052.0,2029.0,2043.0,4358911.0,
2479.0,4050.0,2035.0,2039.0,4358915.0,
2478.0,4052.0,2040.0,2040.0,4358919.0,
2479.0,4051.0,2045.0,2034.0,4358923.0,
2482.0,4052.0,2048.0,2034.0,4358926.0,
2482.0,4050.0,2051.0,2036.0,4358930.0,
2480.0,4052.0,2053.0,2038.0,4358934.0,
2478.0,4051.0,2056.0,2032.0,4358938.0,
2480.0,4053.0,2057.0,2035.0,4358942.0,
2481.0,4050.0,2059.0,2033.0,4358946.0,
2482.0,4051.0,2062.0,2032.0,4358949.0,
2480.0,4052.0,2062.0,2030.0,4358953.0,
2478.0,4053.0,2065.0,2032.0,4358957.0,
2479.0,4051.0,2064.0,2029.0,4358961.0,
2480.0,4051.0,2063.0,2032.0,4358965.0,
2483.0,4050.0,2059.0,2029.0,4358969.0,
2481.0,4053.0,2052.0,2028.0,4358972.0,
2479.0,4053.0,2046.0,2028.0,4358976.0,
2478.0,4052.0,2043.0,2026.0,4358980.0,
2480.0,4053.0,2033.0,2029.0,4358984.0,
2482.0,4051.0,2027.0,2025.0,4358988.0,
2481.0,4051.0,2020.0,2025.0,4358992.0,
2479.0,4051.0,2014.0,2025.0,4358995.0,
2479.0,4052.0,2008.0,2025.0,4358999.0,
2480.0,4055.0,2000.0,2025.0,4359003.0,
2481.0,4050.0,1995.0,2022.0,4359007.0,
2482.0,4052.0,1990.0,2020.0,4359011.0,
2479.0,4050.0,1984.0,2020.0,4359015.0,
2478.0,4052.0,1983.0,2019.0,4359018.0,
2479.0,4051.0,1977.0,2019.0,4359022.0,
2480.0,4051.0,1974.0,2020.0,4359026.0,
2482.0,4050.0,1972.0,2019.0,4359030.0,
2480.0,4053.0,1968.0,2019.0,4359034.0,
2478.0,4050.0,1962.0,2016.0,4359038.0,
2478.0,4052.0,1960.0,2019.0,4359041.0,
2477.0,4052.0,1959.0,2019.0,4359045.0,
2482.0,4051.0,1956.0,2018.0,4359049.0,
2479.0,4051.0,1953.0,2017.0,4359053.0,
2479.0,4052.0,1950.0,2018.0,4359057.0,
2479.0,4050.0,1944.0,2017.0,4359061.0,
2481.0,4053.0,1942.0,2017.0,4359064.0,
2482.0,4051.0,1940.0,2018.0,4359068.0,
2481.0,4050.0,1939.0,2017.0,4359072.0,
2478.0,4052.0,1938.0,2020.0,4359076.0,
2478.0,4052.0,1934.0,2015.0,4359080.0,
2479.0,4052.0,1934.0,2017.0,4359083.0,
2481.0,4052.0,1934.0,2014.0,4359087.0,
2481.0,4051.0,1930.0,2016.0,4359091.0,
2480.0,4052.0,1931.0,2020.0,4359095.0,
2479.0,4054.0,1931.0,2018.0,4359099.0,
2478.0,4052.0,1931.0,2017.0,4359103.0,
2481.0,4050.0,1935.0,2017.0,4359106.0,
2482.0,4051.0,1934.0,2018.0,4359110.0,
2479.0,4052.0,1933.0,2018.0,4359114.0,
2478.0,4052.0,1937.0,2017.0,4359118.0,
2478.0,4051.0,1938.0,2016.0,4359122.0,
2481.0,4054.0,1937.0,2020.0,4359125.0,
2482.0,4051.0,1941.0,2016.0,4359129.0,
2480.0,4051.0,1945.0,2017.0,4359133.0,
2478.0,4053.0,1945.0,2018.0,4359137.0,
2478.0,4051.0,1944.0,2017.0,4359141.0,
2481.0,4052.0,1947.0,2019.0,4359145.0,
2482.0,4051.0,1945.0,2015.0,4359148.0,
2481.0,4053.0,1950.0,2017.0,4359152.0,
2479.0,4052.0,1945.0,2017.0,4359156.0,
2479.0,4052.0,1946.0,2014.0,4359160.0,
2481.0,4050.0,1941.0,2011.0,4359164.0,
2481.0,4052.0,1941.0,2010.0,4359168.0,
2481.0,4051.0,1937.0,2014.0,4359171.0,
2478.0,4051.0,1936.0,2013.0,4359175.0,
2479.0,4050.0,1932.0,2010.0,4359179.0,
2479.0,4051.0,1931.0,2012.0,4359183.0,
2480.0,4051.0,1929.0,2010.0,4359187.0,
2480.0,4051.0,1925.0,2011.0,4359191.0,
2479.0,4050.0,1924.0,2008.0,4359194.0,
2478.0,4054.0,1920.0,2009.0,4359198.0,
2475.0,4050.0,1917.0,2008.0,4359202.0,
2480.0,4052.0,1915.0,2009.0,4359206.0,
2481.0,4052.0,1910.0,2007.0,4359210.0,
2480.0,4052.0,1911.0,2010.0,4359213.0,
2477.0,4052.0,1913.0,2008.0,4359217.0,
2478.0,4052.0,1909.0,2011.0,4359221.0,
2480.0,4051.0,1912.0,2007.0,4359225.0,
2482.0,4052.0,1912.0,2007.0,4359229.0,
2480.0,4051.0,1913.0,2006.0,4359232.0,
2479.0,4050.0,1913.0,2006.0,4359236.0,
2480.0,4051.0,1913.0,2006.0,4359240.0,
2480.0,4052.0,1913.0,2006.0,4359244.0,
2481.0,4050.0,1915.0,2007.0,4359248.0,
2481.0,4051.0,1918.0,2007.0,4359251.0,
2479.0,4051.0,1920.0,2010.0,4359255.0,
2478.0,4051.0,1920.0,2009.0,4359259.0,
2479.0,4051.0,1921.0,2013.0,4359263.0,
2481.0,4051.0,1926.0,2013.0,4359267.0,
2481.0,4052.0,1925.0,2017.0,4359271.0,
2480.0,4051.0,1930.0,2018.0,4359274.0,
2478.0,4052.0,1935.0,2023.0,4359278.0,
2479.0,4053.0,1936.0,2025.0,4359282.0,
2481.0,4051.0,1942.0,2028.0,4359286.0,
2481.0,4051.0,1943.0,2030.0,4359290.0,
2481.0,4051.0,1948.0,2031.0,4359293.0,
2478.0,4050.0,1954.0,2035.0,4359297.0,
2478.0,4051.0,1963.0,2039.0,4359301.0,
2481.0,4051.0,1971.0,2041.0,4359305.0,
2482.0,4053.0,1979.0,2045.0,4359309.0,
2480.0,4050.0,1985.0,2048.0,4359312.0,
2478.0,4052.0,1994.0,2054.0,4359316.0,
2477.0,4052.0,2001.0,2057.0,4359320.0,
2479.0,4054.0,2010.0,2061.0,4359324.0,
2481.0,4050.0,2019.0,2062.0,4359328.0,
2482.0,4053.0,2030.0,2068.0,4359332.0,
2482.0,4051.0,2036.0,2070.0,4359335.0,
2479.0,4052.0,2049.0,2075.0,4359339.0,
2480.0,4051.0,2060.0,2075.0,4359343.0,
2481.0,4052.0,2072.0,2080.0,4359347.0,
2483.0,4051.0,2088.0,2080.0,4359351.0,
2481.0,4051.0,2101.0,2085.0,4359355.0,
2480.0,4052.0,2118.0,2087.0,4359358.0,
2479.0,4053.0,2134.0,2090.0,4359362.0,
2481.0,4051.0,2153.0,2091.0,4359366.0,
2482.0,4053.0,2171.0,2095.0,4359370.0,
2481.0,4051.0,2192.0,2096.0,4359374.0,
2478.0,4052.0,2209.0,2099.0,4359377.0,
2478.0,4050.0,2225.0,2098.0,4359381.0,
2482.0,4051.0,2243.0,2100.0,4359385.0,
2482.0,4052.0,2254.0,2103.0,4359389.0,
2481.0,4051.0,2270.0,2103.0,4359393.0,
2478.0,4052.0,2285.0,2104.0,4359397.0,
2479.0,4050.0,2292.0,2104.0,4359400.0,
2480.0,4052.0,2306.0,2107.0,4359404.0,
2481.0,4051.0,2312.0,2107.0,4359408.0,
2481.0,4052.0,2322.0,2107.0,4359412.0,
2479.0,4051.0,2329.0,2106.0,4359416.0,
2478.0,4053.0,2334.0,2107.0,4359419.0,
2479.0,4051.0,2339.0,2106.0,4359423.0,
2481.0,4053.0,2339.0,2108.0,4359427.0,
2482.0,4051.0,2343.0,2107.0,4359431.0,
2480.0,4052.0,2338.0,2107.0,4359435.0,
2478.0,4051.0,2334.0,2107.0,4359439.0,
2480.0,4052.0,2330.0,2105.0,4359442.0,
2479.0,4051.0,2325.0,2105.0,4359446.0,
2482.0,4053.0,2317.0,2106.0,4359450.0,
2482.0,4051.0,2311.0,2105.0,4359454.0,
2478.0,4051.0,2298.0,2105.0,4359458.0,
2478.0,4051.0,2292.0,2102.0,4359461.0,
2480.0,4054.0,2278.0,2103.0,4359465.0,
2482.0,4051.0,2272.0,2102.0,4359469.0,
2481.0,4052.0,2257.0,2102.0,4359473.0,
2479.0,4054.0,2251.0,2099.0,4359477.0,
2478.0,4051.0,2238.0,2099.0,4359480.0,
2480.0,4051.0,2229.0,2096.0,4359484.0,
2482.0,4051.0,2219.0,2093.0,4359488.0,
2481.0,4051.0,2209.0,2091.0,4359492.0,
2480.0,4053.0,2204.0,2091.0,4359496.0,
2477.0,4050.0,2196.0,2087.0,4359500.0,
2480.0,4052.0,2187.0,2086.0,4359503.0,
2481.0,4051.0,2179.0,2082.0,4359507.0,
2481.0,4051.0,2172.0,2078.0,4359511.0,
2480.0,4053.0,2163.0,2078.0,4359515.0,
2478.0,4050.0,2156.0,2073.0,4359519.0,
2480.0,4053.0,2150.0,2070.0,4359523.0,
2482.0,4053.0,2147.0,2067.0,4359526.0,
2481.0,4053.0,2140.0,2064.0,4359531.0,
2480.0,4051.0,2135.0,2056.0,4359535.0,
2477.0,4052.0,2132.0,2060.0,4359539.0,
2479.0,4051.0,2126.0,2054.0,4359543.0,
2481.0,4052.0,2123.0,2056.0,4359546.0,
2482.0,4051.0,2119.0,2055.0,4359550.0,
2480.0,4051.0,2114.0,2050.0,4359554.0,
2477.0,4053.0,2114.0,2050.0,4359558.0,
2480.0,4051.0,2108.0,2051.0,4359562.0,
2480.0,4052.0,2103.0,2049.0,4359566.0,
2483.0,4050.0,2102.0,2047.0,4359570.0,
2481.0,4053.0,2100.0,2046.0,4359573.0,
2480.0,4052.0,2095.0,2047.0,4359577.0,
2478.0,4051.0,2086.0,2046.0,4359581.0,
2480.0,4052.0,2080.0,2043.0,4359585.0,
2481.0,4053.0,2075.0,2043.0,4359589.0,
2481.0,4051.0,2067.0,2043.0,4359593.0,
2479.0,4051.0,2061.0,2043.0,4359596.0,
2478.0,4053.0,2054.0,2043.0,4359600.0,
2479.0,4053.0,2051.0,2039.0,4359604.0,
2481.0,4049.0,2043.0,2045.0,4359608.0,
2482.0,4052.0,2037.0,2042.0,4359612.0,
2480.0,4050.0,2035.0,2041.0,4359616.0,
2478.0,4051.0,2032.0,2044.0,4359620.0,
2479.0,4051.0,2029.0,2044.0,4359623.0,
2481.0,4052.0,2026.0,2045.0,4359627.0,
2482.0,4051.0,2025.0,2044.0,4359631.0,
2480.0,4053.0,2024.0,2046.0,4359635.0,
2478.0,4050.0,2025.0,2044.0,4359639.0,
2478.0,4051.0,2025.0,2046.0,4359642.0,
2481.0,4051.0,2027.0,2044.0,4359646.0,
2482.0,4050.0,2028.0,2044.0,4359650.0,
2480.0,4051.0,2030.0,2044.0,4359654.0,
2478.0,4052.0,2031.0,2044.0,4359658.0,
2479.0,4052.0,2036.0,2045.0,4359663.0,
2480.0,4050.0,2040.0,2044.0,4359667.0,
2482.0,4052.0,2043.0,2045.0,4359671.0,
2481.0,4052.0,2046.0,2042.0,4359675.0,
2479.0,4052.0,2047.0,2042.0,4359679.0,
2479.0,4049.0,2049.0,2042.0,4359682.0,
2480.0,4051.0,2048.0,2044.0,4359686.0,
2481.0,4050.0,2051.0,2042.0,4359690.0,
2480.0,4052.0,2052.0,2044.0,4359694.0,
2479.0,4050.0,2053.0,2041.0,4359698.0,
2478.0,4052.0,2052.0,2043.0,4359701.0,
2481.0,4050.0,2051.0,2041.0,4359705.0,
2482.0,4052.0,2046.0,2042.0,4359709.0,
2481.0,4050.0,2050.0,2038.0,4359713.0,
2480.0,4053.0,2048.0,2040.0,4359717.0,
2479.0,4052.0,2045.0,2036.0,4359720.0,
2479.0,4050.0,2042.0,2037.0,4359724.0,
2481.0,4053.0,2043.0,2037.0,4359728.0,
2481.0,4050.0,2042.0,2035.0,4359732.0,
2479.0,4052.0,2038.0,2037.0,4359736.0,
2478.0,4051.0,2045.0,2032.0,4359740.0,
2478.0,4052.0,2037.0,2035.0,4359743.0,
2481.0,4053.0,2038.0,2033.0,4359747.0,
2483.0,4052.0,2040.0,2034.0,4359751.0,
2482.0,4051.0,2036.0,2033.0,4359755.0,
2479.0,4052.0,2033.0,2032.0,4359759.0,
2477.0,4051.0,2033.0,2029.0,4359763.0,
2480.0,4052.0,2029.0,2031.0,4359766.0,
2482.0,4052.0,2025.0,2029.0,4359770.0,
2481.0,4052.0,2021.0,2025.0,4359774.0,
2480.0,4052.0,2018.0,2026.0,4359778.0,
2478.0,4051.0,2014.0,2023.0,4359782.0,
2480.0,4052.0,2008.0,2026.0,4359786.0,
2481.0,4053.0,2006.0,2024.0,4359790.0,
2482.0,4053.0,2005.0,2025.0,4359793.0,
2479.0,4050.0,2000.0,2022.0,4359797.0,
2479.0,4051.0,1996.0,2022.0,4359801.0,
2480.0,4052.0,1993.0,2025.0,4359805.0,
2482.0,4052.0,1986.0,2022.0,4359809.0,
2483.0,4053.0,1984.0,2024.0,4359812.0,
2480.0,4052.0,1980.0,2024.0,4359816.0,
2478.0,4052.0,1978.0,2023.0,4359820.0,
2478.0,4052.0,1975.0,2020.0,4359824.0,
2480.0,4052.0,1975.0,2021.0,4359828.0,
2483.0,4051.0,1973.0,2019.0,4359832.0,
2480.0,4052.0,1973.0,2018.0,4359835.0,
2479.0,4051.0,1970.0,2018.0,4359839.0,
2479.0,4051.0,1973.0,2016.0,4359843.0,
2481.0,4053.0,1969.0,2017.0,4359847.0,
2481.0,4050.0,1970.0,2018.0,4359851.0,
2481.0,4052.0,1967.0,2017.0,4359855.0,
2479.0,4051.0,1967.0,2014.0,4359858.0,
2478.0,4052.0,1961.0,2015.0,4359862.0,
2481.0,4053.0,1959.0,2017.0,4359866.0,
2481.0,4050.0,1957.0,2013.0,4359870.0,
2481.0,4052.0,1957.0,2016.0,4359874.0,
2479.0,4051.0,1958.0,2014.0,4359878.0,
2477.0,4053.0,1954.0,2015.0,4359881.0,
2480.0,4050.0,1953.0,2013.0,4359885.0,
2481.0,4051.0,1948.0,2012.0,4359889.0,
2481.0,4051.0,1944.0,2013.0,4359893.0,
2478.0,4050.0,1943.0,2010.0,4359897.0,
2478.0,4050.0,1940.0,2013.0,4359901.0,
2479.0,4051.0,1941.0,2011.0,4359904.0,
2481.0,4052.0,1939.0,2012.0,4359908.0,
2481.0,4052.0,1938.0,2011.0,4359912.0,
2481.0,4051.0,1936.0,2009.0,4359916.0,
2478.0,4053.0,1933.0,2009.0,4359920.0,
2479.0,4052.0,1935.0,2006.0,4359924.0,
2481.0,4052.0,1931.0,2008.0,4359927.0,
2482.0,4050.0,1930.0,2005.0,4359931.0,
2481.0,4052.0,1928.0,2006.0,4359935.0,
2478.0,4050.0,1929.0,2008.0,4359939.0,
2478.0,4052.0,1923.0,2006.0,4359943.0,
2478.0,4052.0,1922.0,2004.0,4359946.0,
2482.0,4053.0,1920.0,2006.0,4359950.0,
2481.0,4052.0,1924.0,2006.0,4359954.0,
2478.0,4050.0,1925.0,2006.0,4359958.0,
2478.0,4051.0,1920.0,2005.0,4359962.0,
2479.0,4050.0,1923.0,2006.0,4359965.0,
2482.0,4053.0,1923.0,2006.0,4359969.0,
2482.0,4052.0,1926.0,2006.0,4359973.0,
2480.0,4051.0,1928.0,2005.0,4359977.0,
2478.0,4051.0,1925.0,2007.0,4359981.0,
2479.0,4051.0,1930.0,2007.0,4359985.0,
2482.0,4051.0,1929.0,2008.0,4359988.0,
2482.0,4051.0,1929.0,2006.0,4359992.0,
2480.0,4051.0,1930.0,2006.0,4359996.0,
2479.0,4053.0,1934.0,2008.0,4360000.0,
2479.0,4051.0,1936.0,2003.0,4360004.0,
2480.0,4052.0,1938.0,2005.0,4360007.0,
2482.0,4049.0,1939.0,2003.0,4360011.0,
2480.0,4051.0,1941.0,2003.0,4360015.0,
2478.0,4052.0,1940.0,2006.0,4360019.0,
2479.0,4051.0,1938.0,2007.0,4360023.0,
2480.0,4051.0,1939.0,2005.0,4360026.0,
2481.0,4050.0,1941.0,2005.0,4360030.0,
2481.0,4052.0,1942.0,2004.0,4360034.0,
2479.0,4051.0,1943.0,2004.0,4360038.0,
2478.0,4051.0,1946.0,2003.0,4360042.0,
2479.0,4050.0,1946.0,2006.0,4360046.0,
2482.0,4051.0,1949.0,2005.0,4360049.0,
2481.0,4052.0,1950.0,2008.0,4360053.0,
2479.0,4051.0,1953.0,2008.0,4360057.0,
2478.0,4052.0,1955.0,2012.0,4360061.0,
2480.0,4051.0,1957.0,2011.0,4360065.0,
2481.0,4052.0,1960.0,2013.0,4360069.0,
2481.0,4051.0,1962.0,2016.0,4360072.0,
2479.0,4052.0,1961.0,2019.0,4360076.0,
2477.0,4053.0,1961.0,2022.0,4360080.0,
2478.0,4051.0,1959.0,2023.0,4360084.0,
2481.0,4050.0,1960.0,2029.0,4360088.0,
2483.0,4051.0,1959.0,2031.0,4360091.0,
2481.0,4050.0,1959.0,2035.0,4360095.0,
2478.0,4052.0,1960.0,2041.0,4360099.0,
2478.0,4051.0,1958.0,2044.0,4360103.0,
2481.0,4051.0,1960.0,2047.0,4360107.0,
2481.0,4052.0,1960.0,2050.0,4360111.0,
2480.0,4051.0,1961.0,2053.0,4360115.0,
2479.0,4051.0,1963.0,2059.0,4360118.0,
2478.0,4052.0,1966.0,2056.0,4360122.0,
2480.0,4051.0,1972.0,2061.0,4360126.0,
2482.0,4053.0,1981.0,2063.0,4360130.0,
2481.0,4051.0,1985.0,2067.0,4360134.0,
2479.0,4050.0,1994.0,2070.0,4360137.0,
2478.0,4051.0,2005.0,2072.0,4360141.0,
2480.0,4053.0,2017.0,2075.0,4360145.0,
2482.0,4053.0,2032.0,2077.0,4360149.0,
2483.0,4049.0,2045.0,2074.0,4360153.0,
2479.0,4051.0,2063.0,2077.0,4360157.0,
2478.0,4051.0,2081.0,2078.0,4360161.0,
2480.0,4052.0,2098.0,2084.0,4360164.0,
2482.0,4053.0,2112.0,2087.0,4360168.0,
2483.0,4053.0,2138.0,2087.0,4360172.0,
2480.0,4051.0,2156.0,2087.0,4360176.0,
2478.0,4051.0,2177.0,2088.0,4360180.0,
2479.0,4051.0,2198.0,2089.0,4360184.0,
2481.0,4052.0,2215.0,2091.0,4360187.0,
2481.0,4052.0,2236.0,2090.0,4360191.0,
2481.0,4052.0,2253.0,2092.0,4360195.0,
2479.0,4051.0,2270.0,2096.0,4360199.0,
2478.0,4050.0,2287.0,2093.0,4360203.0,
2480.0,4052.0,2303.0,2094.0,4360207.0,
2482.0,4050.0,2318.0,2094.0,4360210.0,
2480.0,4051.0,2330.0,2093.0,4360214.0,
2479.0,4052.0,2342.0,2095.0,4360218.0,
2478.0,4050.0,2354.0,2094.0,4360222.0,
2480.0,4053.0,2355.0,2095.0,4360226.0,
2482.0,4053.0,2364.0,2094.0,4360229.0,
2481.0,4051.0,2365.0,2094.0,4360233.0,
2480.0,4050.0,2364.0,2094.0,4360237.0,
2478.0,4051.0,2364.0,2093.0,4360241.0,
2479.0,4054.0,2363.0,2096.0,4360245.0,
2479.0,4051.0,2356.0,2093.0,4360249.0,
2482.0,4051.0,2352.0,2094.0,4360252.0,
2480.0,4051.0,2350.0,2094.0,4360256.0,
2478.0,4053.0,2343.0,2093.0,4360260.0,
2478.0,4050.0,2338.0,2093.0,4360264.0,
2481.0,4051.0,2332.0,2093.0,4360268.0,
2482.0,4052.0,2321.0,2092.0,4360272.0,
2481.0,4052.0,2313.0,2092.0,4360275.0,
2479.0,4052.0,2306.0,2090.0,4360279.0,
2479.0,4051.0,2298.0,2090.0,4360283.0,
2481.0,4051.0,2288.0,2089.0,4360287.0,
2483.0,4052.0,2278.0,2087.0,4360291.0,
2481.0,4051.0,2271.0,2084.0,4360295.0,
2479.0,4052.0,2261.0,2084.0,4360298.0,
2479.0,4051.0,2252.0,2084.0,4360302.0,
2480.0,4051.0,2246.0,2081.0,4360306.0,
2480.0,4052.0,2240.0,2077.0,4360310.0,
2481.0,4053.0,2234.0,2078.0,4360314.0,
2479.0,4052.0,2230.0,2073.0,4360318.0,
2479.0,4051.0,2221.0,2074.0,4360321.0,
2480.0,4050.0,2215.0,2070.0,4360325.0,
2482.0,4052.0,2209.0,2068.0,4360329.0,
2482.0,4052.0,2202.0,2067.0,4360333.0,
2480.0,4050.0,2196.0,2062.0,4360337.0,
2478.0,4051.0,2184.0,2060.0,4360340.0,
2480.0,4051.0,2178.0,2058.0,4360344.0,
2481.0,4051.0,2168.0,2056.0,4360348.0,
2482.0,4052.0,2161.0,2053.0,4360352.0,
2479.0,4050.0,2156.0,2053.0,4360356.0,
2478.0,4052.0,2140.0,2051.0,4360361.0,
2479.0,4051.0,2136.0,2047.0,4360365.0,
2481.0,4051.0,2128.0,2047.0,4360369.0,
2483.0,4052.0,2118.0,2046.0,4360373.0,
2480.0,4051.0,2113.0,2045.0,4360377.0,
2478.0,4052.0,2105.0,2044.0,4360381.0,
2479.0,4050.0,2097.0,2044.0,4360384.0,
2479.0,4051.0,2089.0,2042.0,4360388.0,
2482.0,4051.0,2085.0,2042.0,4360392.0,
2481.0,4052.0,2078.0,2044.0,4360396.0,
2479.0,4052.0,2074.0,2042.0,4360400.0,
2478.0,4052.0,2070.0,2044.0,4360403.0,
2480.0,4051.0,2064.0,2042.0,4360407.0,
2484.0,4053.0,2056.0,2039.0,4360411.0,
2481.0,4053.0,2054.0,2042.0,4360415.0,
2479.0,4050.0,2050.0,2041.0,4360419.0,
2478.0,4052.0,2046.0,2042.0,4360422.0,
2479.0,4053.0,2041.0,2041.0,4360426.0,
2481.0,4051.0,2045.0,2043.0,4360430.0,
2482.0,4051.0,2035.0,2040.0,4360434.0,
2480.0,4052.0,2033.0,2042.0,4360438.0,
2478.0,4051.0,2031.0,2041.0,4360442.0,
2480.0,4051.0,2028.0,2040.0,4360445.0,
2481.0,4051.0,2025.0,2042.0,4360449.0,
2481.0,4050.0,2023.0,2039.0,4360453.0,
2481.0,4052.0,2022.0,2042.0,4360457.0,
2478.0,4051.0,2020.0,2039.0,4360461.0,
2478.0,4053.0,2020.0,2041.0,4360464.0,
2481.0,4052.0,2018.0,2042.0,4360468.0,
2482.0,4052.0,2020.0,2041.0,4360472.0,
2480.0,4052.0,2018.0,2038.0,4360476.0,
2479.0,4053.0,2020.0,2042.0,4360480.0,
2478.0,4051.0,2024.0,2037.0,4360484.0,
2480.0,4053.0,2021.0,2039.0,4360487.0,
2482.0,4054.0,2026.0,2038.0,4360491.0,
2482.0,4052.0,2027.0,2040.0,4360495.0,
2478.0,4050.0,2030.0,2039.0,4360499.0,
2480.0,4052.0,2033.0,2040.0,4360503.0,
2479.0,4051.0,2034.0,2038.0,4360506.0,
2482.0,4053.0,2037.0,2037.0,4360510.0,
2481.0,4050.0,2041.0,2035.0,4360514.0,
2479.0,4050.0,2045.0,2034.0,4360518.0,
2478.0,4053.0,2047.0,2036.0,4360522.0,
2479.0,4050.0,2051.0,2034.0,4360526.0,
2482.0,4053.0,2051.0,2032.0,4360529.0,
2482.0,4052.0,2055.0,2032.0,4360533.0,
2481.0,4051.0,2053.0,2034.0,4360537.0,
2478.0,4050.0,2054.0,2031.0,4360541.0,
2478.0,4055.0,2053.0,2032.0,4360545.0,
2481.0,4051.0,2051.0,2029.0,4360549.0,
2482.0,4051.0,2047.0,2030.0,4360552.0,
2481.0,4051.0,2046.0,2027.0,4360556.0,
2479.0,4052.0,2044.0,2029.0,4360560.0,
2481.0,4052.0,2038.0,2022.0,4360564.0,
2481.0,4052.0,2037.0,2026.0,4360568.0,
2481.0,4052.0,2034.0,2023.0,4360571.0,
2481.0,4052.0,2032.0,2023.0,4360575.0,
2479.0,4052.0,2030.0,2022.0,4360579.0,
2478.0,4052.0,2026.0,2020.0,4360583.0,
2479.0,4052.0,2023.0,2021.0,4360587.0,
2481.0,4051.0,2021.0,2020.0,4360591.0,
2481.0,4054.0,2019.0,2021.0,4360594.0,
2479.0,4051.0,2013.0,2018.0,4360598.0,
2478.0,4051.0,2009.0,2017.0,4360602.0,
2476.0,4052.0,2006.0,2018.0,4360606.0,
2482.0,4051.0,1999.0,2017.0,4360610.0,
2482.0,4052.0,1994.0,2015.0,4360613.0,
2480.0,4053.0,1994.0,2014.0,4360617.0,
2478.0,4052.0,1992.0,2017.0,4360621.0,
2479.0,4051.0,1986.0,2012.0,4360625.0,
2480.0,4052.0,1982.0,2013.0,4360629.0,
2481.0,4053.0,1980.0,2012.0,4360632.0,
2481.0,4051.0,1977.0,2011.0,4360636.0,
2478.0,4051.0,1975.0,2011.0,4360640.0,
2478.0,4052.0,1973.0,2012.0,4360644.0,
2480.0,4053.0,1973.0,2014.0,4360648.0,
2483.0,4051.0,1971.0,2012.0,4360652.0,
2481.0,4052.0,1970.0,2013.0,4360655.0,
2479.0,4051.0,1967.0,2011.0,4360659.0,
2479.0,4053.0,1962.0,2014.0,4360663.0,
2479.0,4051.0,1959.0,2011.0,4360667.0,
2482.0,4051.0,1957.0,2011.0,4360671.0,
2481.0,4051.0,1955.0,2012.0,4360675.0,
2479.0,4054.0,1951.0,2011.0,4360679.0,
2479.0,4052.0,1949.0,2009.0,4360683.0,
2480.0,4052.0,1947.0,2011.0,4360687.0,
2481.0,4051.0,1946.0,2012.0,4360691.0,
2481.0,4052.0,1946.0,2012.0,4360695.0,
2478.0,4050.0,1947.0,2010.0,4360699.0,
2478.0,4050.0,1947.0,2010.0,4360703.0,
2480.0,4052.0,1948.0,2012.0,4360707.0,
2482.0,4050.0,1947.0,2009.0,4360711.0,
2482.0,4053.0,1948.0,2012.0,4360714.0,
2479.0,4052.0,1945.0,2013.0,4360718.0,
2478.0,4052.0,1946.0,2011.0,4360722.0,
2479.0,4051.0,1949.0,2012.0,4360726.0,
2482.0,4052.0,1948.0,2013.0,4360730.0,
2482.0,4052.0,1951.0,2010.0,4360734.0,
2481.0,4051.0,1951.0,2009.0,4360737.0,
2478.0,4051.0,1954.0,2009.0,4360741.0,
2483.0,4052.0,1952.0,2010.0,4360745.0,
2479.0,4051.0,1956.0,2007.0,4360749.0,
2482.0,4052.0,1954.0,2007.0,4360753.0,
2481.0,4050.0,1956.0,2006.0,4360757.0,
2479.0,4052.0,1959.0,2009.0,4360760.0,
2479.0,4051.0,1958.0,2006.0,4360764.0,
2480.0,4051.0,1956.0,2006.0,4360768.0,
2483.0,4053.0,1956.0,2009.0,4360772.0,
2481.0,4052.0,1956.0,2006.0,4360776.0,
2479.0,4052.0,1956.0,2008.0,4360780.0,
2479.0,4051.0,1952.0,2008.0,4360783.0,
2480.0,4051.0,1951.0,2008.0,4360788.0,
2481.0,4053.0,1953.0,2012.0,4360792.0,
2480.0,4049.0,1954.0,2009.0,4360796.0,
2480.0,4053.0,1954.0,2011.0,4360800.0,
2478.0,4050.0,1953.0,2009.0,4360804.0,
2480.0,4054.0,1957.0,2011.0,4360807.0,
2482.0,4052.0,1954.0,2014.0,4360811.0,
2482.0,4052.0,1954.0,2012.0,4360815.0,
2482.0,4052.0,1953.0,2014.0,4360819.0,
2478.0,4052.0,1954.0,2013.0,4360823.0,
2479.0,4051.0,1955.0,2011.0,4360827.0,
2481.0,4052.0,1952.0,2014.0,4360831.0,
2482.0,4051.0,1953.0,2010.0,4360835.0,
2479.0,4052.0,1952.0,2011.0,4360839.0,
2477.0,4051.0,1952.0,2010.0,4360843.0,
2479.0,4052.0,1949.0,2012.0,4360847.0,
2482.0,4051.0,1949.0,2012.0,4360850.0,
2481.0,4050.0,1947.0,2014.0,4360854.0,
2480.0,4052.0,1949.0,2015.0,4360858.0,
2478.0,4050.0,1952.0,2013.0,4360862.0,
2479.0,4052.0,1949.0,2015.0,4360866.0,
2482.0,4050.0,1950.0,2014.0,4360870.0,
2482.0,4052.0,1953.0,2016.0,4360873.0,
2480.0,4052.0,1953.0,2016.0,4360877.0,
2479.0,4053.0,1956.0,2020.0,4360881.0,
2478.0,4052.0,1957.0,2019.0,4360885.0,
2480.0,4051.0,1955.0,2020.0,4360889.0,
2483.0,4053.0,1951.0,2022.0,4360893.0,
2480.0,4052.0,1950.0,2024.0,4360896.0,
2478.0,4053.0,1952.0,2026.0,4360900.0,
2482.0,4051.0,1949.0,2026.0,4360904.0,
2480.0,4050.0,1946.0,2031.0,4360908.0,
2481.0,4051.0,1946.0,2034.0,4360912.0,
2481.0,4051.0,1946.0,2035.0,4360915.0,
2479.0,4054.0,1945.0,2038.0,4360919.0,
2478.0,4053.0,1947.0,2040.0,4360923.0,
2479.0,4051.0,1952.0,2041.0,4360927.0,
2483.0,4053.0,1959.0,2042.0,4360931.0,
2481.0,4052.0,1966.0,2046.0,4360935.0,
2480.0,4051.0,1974.0,2052.0,4360938.0,
2478.0,4051.0,1978.0,2051.0,4360942.0,
2478.0,4052.0,1989.0,2053.0,4360946.0,
2481.0,4051.0,1995.0,2054.0,4360950.0,
2482.0,4053.0,2007.0,2058.0,4360954.0,
2481.0,4050.0,2022.0,2058.0,4360957.0,
2478.0,4050.0,2034.0,2059.0,4360961.0,
2477.0,4051.0,2049.0,2060.0,4360965.0,
2481.0,4053.0,2066.0,2066.0,4360969.0,
2482.0,4051.0,2083.0,2065.0,4360973.0,
2481.0,4053.0,2102.0,2069.0,4360976.0,
2478.0,4050.0,2120.0,2067.0,4360980.0,
2476.0,4052.0,2140.0,2071.0,4360984.0,
2479.0,4051.0,2161.0,2071.0,4360988.0,
2480.0,4051.0,2182.0,2073.0,4360992.0,
2481.0,4051.0,2204.0,2075.0,4360996.0,
2479.0,4052.0,2222.0,2077.0,4360999.0,
2478.0,4052.0,2244.0,2076.0,4361003.0,
2479.0,4051.0,2262.0,2078.0,4361007.0,
2481.0,4053.0,2281.0,2082.0,4361011.0,
2481.0,4050.0,2300.0,2082.0,4361015.0,
2480.0,4053.0,2313.0,2086.0,4361018.0,
2479.0,4050.0,2328.0,2085.0,4361022.0,
2479.0,4053.0,2342.0,2087.0,4361026.0,
2481.0,4051.0,2356.0,2086.0,4361030.0,
2481.0,4051.0,2368.0,2089.0,4361034.0,
2481.0,4051.0,2378.0,2089.0,4361037.0,
2479.0,4051.0,2386.0,2087.0,4361041.0,
2478.0,4052.0,2394.0,2088.0,4361045.0,
2478.0,4052.0,2402.0,2089.0,4361049.0,
2481.0,4052.0,2409.0,2089.0,4361053.0,
2482.0,4052.0,2410.0,2091.0,4361056.0,
2480.0,4054.0,2409.0,2090.0,4361060.0,
2479.0,4051.0,2409.0,2091.0,4361064.0,
2479.0,4051.0,2407.0,2088.0,4361068.0,
2481.0,4051.0,2406.0,2091.0,4361072.0,
2483.0,4051.0,2396.0,2090.0,4361076.0,
2480.0,4052.0,2384.0,2088.0,4361079.0,
2478.0,4053.0,2380.0,2087.0,4361083.0,
2479.0,4051.0,2368.0,2086.0,4361087.0,
2482.0,4052.0,2360.0,2084.0,4361091.0,
2481.0,4053.0,2347.0,2085.0,4361095.0,
2479.0,4053.0,2333.0,2082.0,4361099.0,
2479.0,4053.0,2327.0,2084.0,4361102.0,
2479.0,4053.0,2314.0,2081.0,4361106.0,
2481.0,4053.0,2300.0,2082.0,4361110.0,
2483.0,4051.0,2293.0,2077.0,4361114.0,
2481.0,4051.0,2285.0,2081.0,4361118.0,
2478.0,4051.0,2278.0,2076.0,4361122.0,
2479.0,4051.0,2269.0,2074.0,4361125.0,
2480.0,4052.0,2265.0,2071.0,4361129.0,
2483.0,4052.0,2259.0,2071.0,4361133.0,
2481.0,4050.0,2254.0,2068.0,4361137.0,
2480.0,4051.0,2246.0,2066.0,4361141.0,
2478.0,4049.0,2237.0,2062.0,4361144.0,
2480.0,4052.0,2228.0,2059.0,4361148.0,
2482.0,4052.0,2219.0,2060.0,4361152.0,
2482.0,4051.0,2209.0,2057.0,4361156.0,
2479.0,4053.0,2198.0,2057.0,4361160.0,
2478.0,4051.0,2187.0,2053.0,4361163.0,
2479.0,4051.0,2176.0,2053.0,4361167.0,
2482.0,4051.0,2167.0,2052.0,4361171.0,
2481.0,4053.0,2156.0,2051.0,4361175.0,
2480.0,4050.0,2145.0,2048.0,4361179.0,
2478.0,4053.0,2134.0,2049.0,4361183.0,
2478.0,4051.0,2128.0,2047.0,4361186.0,
2481.0,4052.0,2119.0,2046.0,4361190.0,
2482.0,4053.0,2111.0,2044.0,4361194.0,
2481.0,4051.0,2103.0,2044.0,4361198.0,
2478.0,4051.0,2098.0,2042.0,4361202.0,
2479.0,4052.0,2090.0,2042.0,4361206.0,
2480.0,4050.0,2082.0,2041.0,4361210.0,
2482.0,4052.0,2075.0,2038.0,4361213.0,
2483.0,4051.0,2067.0,2040.0,4361217.0,
2477.0,4051.0,2061.0,2039.0,4361221.0,
2478.0,4053.0,2055.0,2041.0,4361225.0,
2480.0,4050.0,2053.0,2039.0,4361229.0,
2482.0,4053.0,2053.0,2041.0,4361232.0,
2482.0,4050.0,2045.0,2042.0,4361236.0,
2479.0,4051.0,2051.0,2040.0,4361240.0,
2477.0,4053.0,2050.0,2040.0,4361244.0,
2479.0,4052.0,2049.0,2042.0,4361248.0,
2481.0,4053.0,2051.0,2040.0,4361251.0,
2482.0,4053.0,2056.0,2040.0,4361255.0,
2480.0,4051.0,2057.0,2040.0,4361259.0,
2479.0,4053.0,2056.0,2040.0,4361263.0,
2479.0,4051.0,2058.0,2041.0,4361267.0,
2482.0,4051.0,2061.0,2044.0,4361271.0,
2481.0,4050.0,2061.0,2039.0,4361274.0,
2481.0,4051.0,2062.0,2042.0,4361278.0,
2477.0,4053.0,2060.0,2043.0,4361282.0,
2478.0,4049.0,2065.0,2039.0,4361286.0,
2480.0,4052.0,2068.0,2043.0,4361289.0,
2481.0,4049.0,2071.0,2040.0,4361293.0,
2481.0,4052.0,2071.0,2044.0,4361297.0,
2479.0,4052.0,2075.0,2040.0,4361301.0,
2478.0,4051.0,2075.0,2038.0,4361305.0,
2480.0,4053.0,2073.0,2041.0,4361308.0,
2482.0,4051.0,2075.0,2038.0,4361312.0,
2481.0,4050.0,2078.0,2037.0,4361316.0,
2479.0,4051.0,2077.0,2037.0,4361320.0,
2478.0,4052.0,2077.0,2036.0,4361324.0,
2479.0,4051.0,2077.0,2035.0,4361328.0,
2482.0,4052.0,2074.0,2034.0,4361332.0,
2481.0,4051.0,2076.0,2033.0,4361335.0,
2479.0,4050.0,2077.0,2035.0,4361339.0,
2478.0,4052.0,2077.0,2033.0,4361343.0,
2479.0,4051.0,2075.0,2031.0,4361347.0,
2482.0,4052.0,2075.0,2033.0,4361351.0,
2482.0,4050.0,2077.0,2031.0,4361355.0,
2480.0,4052.0,2073.0,2034.0,4361358.0,
2479.0,4052.0,2071.0,2032.0,4361363.0,
2478.0,4051.0,2073.0,2029.0,4361367.0,
2481.0,4052.0,2068.0,2030.0,4361370.0,
2482.0,4051.0,2065.0,2027.0,4361374.0,
2481.0,4052.0,2062.0,2029.0,4361378.0,
2479.0,4052.0,2060.0,2028.0,4361382.0,
2479.0,4053.0,2056.0,2028.0,4361386.0,
2481.0,4053.0,2053.0,2026.0,4361390.0,
2482.0,4051.0,2053.0,2027.0,4361394.0,
2481.0,4051.0,2052.0,2025.0,4361397.0,
2478.0,4051.0,2049.0,2024.0,4361401.0,
2478.0,4051.0,2043.0,2022.0,4361405.0,
2480.0,4053.0,2039.0,2025.0,4361409.0,
2481.0,4052.0,2035.0,2025.0,4361413.0,
2479.0,4048.0,2030.0,2022.0,4361417.0,
2479.0,4052.0,2023.0,2021.0,4361421.0,
2478.0,4051.0,2018.0,2019.0,4361425.0,
2480.0,4052.0,2016.0,2023.0,4361428.0,
2481.0,4051.0,2012.0,2023.0,4361432.0,
2482.0,4052.0,2008.0,2024.0,4361436.0,
2481.0,4053.0,2006.0,2023.0,4361440.0,
2477.0,4050.0,2001.0,2020.0,4361444.0,
2479.0,4052.0,1999.0,2020.0,4361448.0,
2481.0,4051.0,1997.0,2014.0,4361451.0,
2482.0,4050.0,1995.0,2017.0,4361455.0,
2481.0,4050.0,1991.0,2017.0,4361459.0,
2479.0,4053.0,1988.0,2017.0,4361463.0,
2479.0,4051.0,1984.0,2015.0,4361467.0,
2480.0,4051.0,1977.0,2014.0,4361470.0,
2481.0,4052.0,1977.0,2014.0,4361474.0,
2480.0,4051.0,1979.0,2014.0,4361478.0,
2479.0,4053.0,1978.0,2015.0,4361482.0,
2478.0,4051.0,1978.0,2013.0,4361486.0,
2480.0,4051.0,1977.0,2017.0,4361490.0,
2481.0,4052.0,1979.0,2014.0,4361493.0,
2481.0,4051.0,1981.0,2013.0,4361497.0,
2480.0,4052.0,1978.0,2016.0,4361501.0,
2478.0,4051.0,1978.0,2016.0,4361505.0,
2480.0,4053.0,1979.0,2018.0,4361509.0,
2482.0,4051.0,1979.0,2016.0,4361512.0,
2481.0,4050.0,1981.0,2014.0,4361516.0,
2480.0,4052.0,1977.0,2015.0,4361520.0,
2477.0,4051.0,1979.0,2015.0,4361524.0,
2479.0,4052.0,1976.0,2016.0,4361528.0,
2481.0,4052.0,1978.0,2015.0,4361532.0,
2482.0,4052.0,1977.0,2014.0,4361535.0,
2480.0,4050.0,1977.0,2013.0,4361539.0,
2478.0,4051.0,1979.0,2014.0,4361543.0,
2479.0,4052.0,1976.0,2012.0,4361547.0,
2480.0,4051.0,1977.0,2014.0,4361551.0,
2481.0,4052.0,1977.0,2015.0,4361554.0,
2481.0,4050.0,1970.0,2013.0,4361558.0,
2479.0,4052.0,1966.0,2013.0,4361562.0,
2478.0,4052.0,1966.0,2010.0,4361566.0,
2479.0,4053.0,1966.0,2011.0,4361570.0,
2482.0,4052.0,1964.0,2009.0,4361574.0,
2481.0,4052.0,1962.0,2010.0,4361577.0,
2480.0,4051.0,1963.0,2008.0,4361581.0,
2478.0,4051.0,1970.0,2009.0,4361585.0,
2479.0,4051.0,1977.0,2008.0,4361589.0,
2483.0,4051.0,1974.0,2011.0,4361593.0,
2482.0,4050.0,1978.0,2009.0,4361597.0,
2481.0,4051.0,1983.0,2009.0,4361600.0,
2478.0,4051.0,1982.0,2006.0,4361604.0,
2479.0,4050.0,1982.0,2005.0,4361608.0,
2481.0,4053.0,1985.0,2010.0,4361612.0,
2481.0,4051.0,1988.0,2008.0,4361616.0,
2480.0,4052.0,1984.0,2007.0,4361620.0,
2478.0,4051.0,1987.0,2008.0,4361623.0,
2479.0,4052.0,1986.0,2007.0,4361627.0,
2481.0,4052.0,1987.0,2008.0,4361631.0,
2481.0,4050.0,1983.0,2008.0,4361636.0,
2480.0,4052.0,1981.0,2009.0,4361640.0,
2477.0,4051.0,1979.0,2007.0,4361644.0,
2479.0,4052.0,1975.0,2012.0,4361648.0,
2480.0,4050.0,1973.0,2007.0,4361652.0,
2482.0,4052.0,1972.0,2010.0,4361655.0,
2481.0,4052.0,1973.0,2010.0,4361659.0,
2478.0,4051.0,1972.0,2012.0,4361663.0,
2477.0,4051.0,1972.0,2009.0,4361667.0,
2480.0,4052.0,1970.0,2010.0,4361671.0,
2482.0,4051.0,1967.0,2011.0,4361675.0,
2480.0,4054.0,1969.0,2012.0,4361678.0,
2479.0,4050.0,1966.0,2012.0,4361682.0,
2478.0,4051.0,1964.0,2013.0,4361686.0,
2479.0,4052.0,1964.0,2012.0,4361690.0,
2482.0,4053.0,1964.0,2013.0,4361694.0,
2481.0,4052.0,1962.0,2016.0,4361698.0,
2479.0,4052.0,1959.0,2019.0,4361701.0,
2477.0,4052.0,1960.0,2020.0,4361705.0,
2479.0,4051.0,1959.0,2023.0,4361709.0,
2481.0,4051.0,1955.0,2025.0,4361713.0,
2481.0,4052.0,1951.0,2027.0,4361717.0,
2480.0,4051.0,1950.0,2028.0,4361721.0,
2478.0,4054.0,1952.0,2032.0,4361725.0,
2479.0,4051.0,1955.0,2035.0,4361728.0,
2482.0,4052.0,1955.0,2039.0,4361732.0,
2481.0,4052.0,1957.0,2036.0,4361736.0,
2481.0,4052.0,1963.0,2043.0,4361740.0,
2479.0,4050.0,1966.0,2045.0,4361744.0,
2479.0,4052.0,1971.0,2049.0,4361748.0,
2481.0,4051.0,1977.0,2051.0,4361751.0,
2482.0,4052.0,1986.0,2055.0,4361755.0,
2481.0,4053.0,1995.0,2057.0,4361759.0,
2478.0,4053.0,2003.0,2061.0,4361763.0,
2478.0,4051.0,2015.0,2061.0,4361767.0,
2481.0,4053.0,2029.0,2066.0,4361771.0,
2482.0,4051.0,2048.0,2066.0,4361775.0,
2481.0,4053.0,2067.0,2072.0,4361779.0,
2478.0,4051.0,2085.0,2072.0,4361783.0,
2479.0,4051.0,2109.0,2077.0,4361787.0,
2483.0,4050.0,2132.0,2075.0,4361791.0,
2482.0,4053.0,2155.0,2082.0,4361795.0,
2481.0,4051.0,2183.0,2081.0,4361799.0,
2479.0,4051.0,2207.0,2084.0,4361803.0,
2478.0,4051.0,2233.0,2084.0,4361807.0,
2481.0,4052.0,2257.0,2087.0,4361811.0,
2482.0,4051.0,2284.0,2088.0,4361815.0,
2481.0,4052.0,2306.0,2087.0,4361819.0,
2479.0,4050.0,2325.0,2087.0,4361822.0,
2479.0,4051.0,2344.0,2089.0,4361826.0,
2480.0,4052.0,2356.0,2091.0,4361830.0,
2482.0,4050.0,2373.0,2089.0,4361834.0,
2481.0,4053.0,2382.0,2091.0,4361838.0,
2479.0,4051.0,2391.0,2089.0,4361842.0,
2479.0,4053.0,2401.0,2089.0,4361846.0,
2480.0,4049.0,2407.0,2090.0,4361849.0,
2483.0,4051.0,2413.0,2085.0,4361853.0,
2481.0,4051.0,2417.0,2088.0,4361857.0,
2480.0,4053.0,2422.0,2087.0,4361861.0,
2479.0,4051.0,2423.0,2087.0,4361865.0,
2479.0,4052.0,2424.0,2086.0,4361868.0,
2481.0,4051.0,2424.0,2085.0,4361872.0,
2482.0,4052.0,2421.0,2084.0,4361876.0,
2480.0,4052.0,2419.0,2084.0,4361880.0,
2478.0,4052.0,2414.0,2083.0,4361884.0,
2477.0,4052.0,2407.0,2084.0,4361888.0,
2480.0,4050.0,2398.0,2081.0,4361891.0,
2481.0,4050.0,2392.0,2080.0,4361895.0,
2481.0,4052.0,2385.0,2079.0,4361899.0,
2479.0,4051.0,2377.0,2080.0,4361903.0,
2479.0,4052.0,2365.0,2078.0,4361907.0,
2481.0,4051.0,2354.0,2073.0,4361912.0,
2481.0,4050.0,2341.0,2073.0,4361916.0,
2480.0,4052.0,2331.0,2073.0,4361920.0,
2479.0,4050.0,2320.0,2069.0,4361924.0,
2479.0,4051.0,2307.0,2067.0,4361928.0,
2481.0,4051.0,2298.0,2066.0,4361932.0,
2482.0,4053.0,2289.0,2064.0,4361936.0,
2480.0,4051.0,2277.0,2062.0,4361940.0,
2479.0,4053.0,2268.0,2064.0,4361944.0,
2478.0,4051.0,2260.0,2061.0,4361947.0,
2481.0,4051.0,2250.0,2057.0,4361951.0,
2483.0,4053.0,2242.0,2057.0,4361955.0,
2482.0,4053.0,2234.0,2057.0,4361959.0,
2479.0,4053.0,2225.0,2054.0,4361963.0,
2479.0,4052.0,2217.0,2054.0,4361967.0,
2479.0,4051.0,2209.0,2049.0,4361972.0,
2481.0,4050.0,2205.0,2052.0,4361976.0,
2481.0,4050.0,2198.0,2047.0,4361980.0,
2478.0,4050.0,2196.0,2048.0,4361984.0,
2478.0,4051.0,2191.0,2045.0,4361988.0,
2480.0,4052.0,2182.0,2047.0,4361992.0,
2482.0,4053.0,2180.0,2045.0,4361996.0,
2481.0,4050.0,2176.0,2041.0,4362000.0,
2478.0,4052.0,2171.0,2044.0,4362004.0,
2479.0,4051.0,2165.0,2043.0,4362008.0,
2481.0,4052.0,2154.0,2041.0,4362011.0,
2482.0,4050.0,2146.0,2039.0,4362015.0,
2480.0,4051.0,2137.0,2039.0,4362019.0,
2478.0,4051.0,2127.0,2040.0,4362023.0,
2478.0,4053.0,2117.0,2041.0,4362027.0,
2480.0,4051.0,2111.0,2040.0,4362031.0,
2482.0,4052.0,2105.0,2040.0,4362034.0,
2481.0,4051.0,2097.0,2039.0,4362038.0,
2480.0,4051.0,2087.0,2041.0,4362042.0,
2478.0,4050.0,2086.0,2041.0,4362046.0,
2480.0,4052.0,2077.0,2042.0,4362050.0,
2481.0,4051.0,2071.0,2041.0,4362054.0,
2481.0,4053.0,2065.0,2043.0,4362057.0,
2480.0,4052.0,2061.0,2041.0,4362061.0,
2480.0,4050.0,2056.0,2039.0,4362065.0,
2479.0,4052.0,2053.0,2042.0,4362069.0,
2481.0,4051.0,2054.0,2040.0,4362073.0,
2482.0,4052.0,2050.0,2041.0,4362077.0,
2481.0,4052.0,2049.0,2040.0,4362081.0,
2478.0,4052.0,2048.0,2039.0,4362084.0,
2478.0,4052.0,2047.0,2039.0,4362088.0,
2480.0,4050.0,2048.0,2038.0,4362092.0,
2481.0,4053.0,2047.0,2039.0,4362096.0,
2481.0,4051.0,2053.0,2039.0,4362100.0,
2479.0,4052.0,2054.0,2036.0,4362104.0,
2477.0,4051.0,2062.0,2037.0,4362107.0,
2481.0,4051.0,2067.0,2039.0,4362111.0,
2481.0,4051.0,2068.0,2035.0,4362115.0,
2481.0,4052.0,2073.0,2034.0,4362119.0,
2478.0,4050.0,2076.0,2035.0,4362123.0,
2478.0,4052.0,2076.0,2033.0,4362127.0,
2479.0,4050.0,2080.0,2030.0,4362130.0,
2482.0,4052.0,2078.0,2031.0,4362134.0,
2481.0,4052.0,2081.0,2035.0,4362138.0,
2480.0,4051.0,2082.0,2033.0,4362142.0,
2477.0,4048.0,2080.0,2030.0,4362146.0,
2480.0,4052.0,2081.0,2032.0,4362150.0,
2481.0,4050.0,2077.0,2032.0,4362154.0,
2482.0,4051.0,2079.0,2033.0,4362157.0,
2479.0,4053.0,2075.0,2031.0,4362161.0,
2479.0,4052.0,2071.0,2033.0,4362165.0,
2479.0,4050.0,2070.0,2030.0,4362169.0,
2481.0,4052.0,2066.0,2031.0,4362173.0,
2481.0,4051.0,2068.0,2030.0,4362177.0,
2480.0,4052.0,2063.0,2031.0,4362181.0,
2478.0,4051.0,2060.0,2030.0,4362184.0,
2478.0,4051.0,2055.0,2030.0,4362188.0,
2480.0,4050.0,2049.0,2028.0,4362192.0,
2482.0,4053.0,2048.0,2031.0,4362196.0,
2479.0,4050.0,2043.0,2030.0,4362200.0,
2478.0,4052.0,2040.0,2033.0,4362203.0,
2478.0,4052.0,2036.0,2031.0,4362207.0,
2480.0,4050.0,2038.0,2029.0,4362211.0,
2482.0,4051.0,2034.0,2026.0,4362215.0,
2482.0,4053.0,2033.0,2029.0,4362219.0,
2479.0,4051.0,2030.0,2028.0,4362223.0,
2478.0,4051.0,2029.0,2027.0,4362227.0,
2479.0,4050.0,2028.0,2026.0,4362230.0,
2481.0,4052.0,2029.0,2025.0,4362234.0,
2482.0,4052.0,2025.0,2023.0,4362238.0,
2480.0,4051.0,2024.0,2021.0,4362242.0,
2477.0,4053.0,2018.0,2022.0,4362246.0,
2478.0,4052.0,2018.0,2022.0,4362249.0,
2481.0,4052.0,2017.0,2021.0,4362253.0,
2482.0,4052.0,2016.0,2018.0,4362257.0,
2481.0,4051.0,2018.0,2020.0,4362261.0,
2479.0,4053.0,2016.0,2018.0,4362265.0,
2478.0,4051.0,2014.0,2016.0,4362269.0,
2480.0,4052.0,2014.0,2017.0,4362272.0,
2483.0,4051.0,2016.0,2016.0,4362276.0,
2481.0,4051.0,2017.0,2016.0,4362280.0,
2479.0,4052.0,2014.0,2018.0,4362284.0,
2479.0,4052.0,2014.0,2016.0,4362288.0,
2480.0,4055.0,2015.0,2018.0,4362292.0,
2483.0,4051.0,2013.0,2015.0,4362296.0,
2481.0,4052.0,2012.0,2016.0,4362300.0,
2479.0,4052.0,2010.0,2016.0,4362304.0,
2477.0,4053.0,2013.0,2018.0,4362308.0,
2481.0,4051.0,2012.0,2014.0,4362312.0,
2483.0,4051.0,2009.0,2012.0,4362315.0,
2481.0,4052.0,2006.0,2017.0,4362319.0,
2479.0,4052.0,2001.0,2014.0,4362323.0,
2478.0,4051.0,1996.0,2014.0,4362327.0,
2480.0,4052.0,1990.0,2017.0,4362331.0,
2481.0,4050.0,1986.0,2014.0,4362335.0,
2482.0,4052.0,1981.0,2014.0,4362339.0,
2480.0,4050.0,1975.0,2014.0,4362342.0,
2478.0,4052.0,1972.0,2017.0,4362346.0,
2479.0,4051.0,1968.0,2016.0,4362350.0,
2482.0,4052.0,1967.0,2014.0,4362354.0,
2482.0,4052.0,1964.0,2016.0,4362358.0,
2480.0,4051.0,1963.0,2015.0,4362362.0,
2478.0,4054.0,1961.0,2015.0,4362366.0,
2479.0,4051.0,1958.0,2015.0,4362369.0,
2480.0,4051.0,1955.0,2016.0,4362373.0,
2482.0,4052.0,1950.0,2014.0,4362378.0,
2480.0,4052.0,1950.0,2017.0,4362382.0,
2478.0,4052.0,1948.0,2015.0,4362386.0,
2479.0,4052.0,1943.0,2017.0,4362390.0,
2481.0,4051.0,1946.0,2016.0,4362394.0,
2482.0,4051.0,1944.0,2016.0,4362397.0,
2480.0,4051.0,1946.0,2016.0,4362401.0,
2479.0,4051.0,1942.0,2014.0,4362405.0,
2478.0,4052.0,1942.0,2014.0,4362409.0,
2480.0,4050.0,1943.0,2011.0,4362413.0,
2482.0,4054.0,1938.0,2013.0,4362417.0,
2481.0,4051.0,1939.0,2009.0,4362420.0,
2478.0,4051.0,1936.0,2009.0,4362424.0,
2478.0,4051.0,1933.0,2009.0,4362428.0,
2480.0,4052.0,1929.0,2009.0,4362432.0,
2481.0,4054.0,1929.0,2009.0,4362437.0,
2480.0,4051.0,1928.0,2010.0,4362440.0,
2479.0,4052.0,1927.0,2009.0,4362444.0,
2479.0,4050.0,1927.0,2008.0,4362448.0,
2480.0,4052.0,1931.0,2010.0,4362452.0,
2482.0,4052.0,1933.0,2011.0,4362456.0,
2481.0,4051.0,1938.0,2013.0,4362460.0,
2480.0,4051.0,1939.0,2014.0,4362464.0,
2478.0,4051.0,1940.0,2015.0,4362467.0,
2480.0,4050.0,1942.0,2015.0,4362471.0,
2481.0,4052.0,1944.0,2017.0,4362475.0,
2481.0,4052.0,1945.0,2019.0,4362479.0,
2479.0,4051.0,1950.0,2022.0,4362483.0,
2478.0,4052.0,1951.0,2025.0,4362487.0,
2479.0,4050.0,1953.0,2027.0,4362490.0,
2482.0,4051.0,1956.0,2031.0,4362494.0,
2482.0,4050.0,1958.0,2034.0,4362498.0,
2480.0,4053.0,1961.0,2038.0,4362502.0,
2478.0,4051.0,1964.0,2039.0,4362506.0,
2478.0,4053.0,1966.0,2042.0,4362510.0,
2480.0,4051.0,1969.0,2047.0,4362513.0,
2482.0,4051.0,1975.0,2047.0,4362517.0,
2481.0,4052.0,1979.0,2052.0,4362521.0,
2480.0,4050.0,1986.0,2053.0,4362525.0,
2478.0,4053.0,1996.0,2058.0,4362529.0,
2480.0,4051.0,2007.0,2059.0,4362532.0,
2482.0,4052.0,2021.0,2060.0,4362536.0,
2481.0,4051.0,2036.0,2061.0,4362540.0,
2479.0,4052.0,2053.0,2065.0,4362544.0,
2477.0,4051.0,2069.0,2068.0,4362548.0,
2480.0,4053.0,2089.0,2071.0,4362552.0,
2481.0,4050.0,2112.0,2070.0,4362556.0,
2482.0,4052.0,2131.0,2076.0,4362559.0,
2480.0,4051.0,2153.0,2073.0,4362563.0,
2477.0,4051.0,2177.0,2077.0,4362567.0,
2482.0,4052.0,2197.0,2081.0,4362571.0,
2482.0,4050.0,2223.0,2080.0,4362575.0,
2482.0,4052.0,2245.0,2081.0,4362578.0,
2479.0,4051.0,2269.0,2081.0,4362582.0,
2478.0,4051.0,2293.0,2082.0,4362586.0,
2479.0,4053.0,2314.0,2082.0,4362590.0,
2480.0,4050.0,2336.0,2086.0,4362594.0,
2482.0,4051.0,2355.0,2085.0,4362598.0,
2481.0,4051.0,2374.0,2082.0,4362601.0,
2478.0,4051.0,2391.0,2085.0,4362605.0,
2478.0,4050.0,2405.0,2084.0,4362609.0,
2480.0,4051.0,2419.0,2087.0,4362613.0,
2482.0,4052.0,2432.0,2089.0,4362617.0,
2481.0,4051.0,2440.0,2086.0,4362621.0,
2479.0,4053.0,2449.0,2089.0,4362624.0,
2480.0,4052.0,2455.0,2088.0,4362628.0,
2480.0,4050.0,2464.0,2087.0,4362632.0,
2482.0,4052.0,2467.0,2088.0,4362636.0,
2481.0,4050.0,2470.0,2087.0,4362640.0,
2480.0,4051.0,2469.0,2090.0,4362643.0,
2478.0,4051.0,2467.0,2086.0,4362647.0,
2479.0,4051.0,2465.0,2085.0,4362651.0,
2482.0,4051.0,2458.0,2086.0,4362655.0,
2482.0,4052.0,2454.0,2084.0,4362659.0,
2480.0,4053.0,2448.0,2084.0,4362662.0,
2480.0,4050.0,2441.0,2083.0,4362666.0,
2478.0,4051.0,2435.0,2081.0,4362670.0,
2482.0,4052.0,2427.0,2078.0,4362674.0,
2481.0,4051.0,2419.0,2078.0,4362678.0,
2482.0,4052.0,2406.0,2077.0,4362681.0,
2479.0,4050.0,2394.0,2075.0,4362685.0,
2479.0,4052.0,2382.0,2072.0,4362689.0,
2481.0,4051.0,2367.0,2069.0,4362693.0,
2482.0,4052.0,2357.0,2069.0,4362697.0,
2480.0,4051.0,2343.0,2066.0,4362701.0,
2479.0,4053.0,2333.0,2065.0,4362704.0,
2478.0,4051.0,2316.0,2061.0,4362708.0,
2480.0,4052.0,2302.0,2058.0,4362712.0,
2482.0,4052.0,2287.0,2058.0,4362716.0,
2482.0,4050.0,2273.0,2054.0,4362720.0,
2478.0,4051.0,2263.0,2050.0,4362724.0,
2478.0,4052.0,2249.0,2048.0,4362728.0,
2480.0,4051.0,2236.0,2049.0,4362732.0,
2481.0,4051.0,2225.0,2045.0,4362736.0,
2482.0,4052.0,2214.0,2047.0,4362739.0,
2479.0,4053.0,2202.0,2046.0,4362743.0,
2478.0,4052.0,2191.0,2044.0,4362747.0,
2479.0,4051.0,2179.0,2043.0,4362751.0,
2481.0,4053.0,2164.0,2043.0,4362755.0,
2481.0,4052.0,2153.0,2041.0,4362758.0,
2480.0,4051.0,2140.0,2042.0,4362762.0,
2478.0,4050.0,2132.0,2041.0,4362766.0,
2480.0,4052.0,2120.0,2044.0,4362770.0,
2482.0,4051.0,2110.0,2042.0,4362774.0,
2482.0,4052.0,2096.0,2044.0,4362778.0,
2478.0,4053.0,2091.0,2041.0,4362781.0,
2478.0,4050.0,2078.0,2043.0,4362785.0,
2480.0,4052.0,2070.0,2042.0,4362789.0,
2480.0,4051.0,2064.0,2042.0,4362793.0,
2482.0,4053.0,2055.0,2041.0,4362797.0,
2481.0,4050.0,2050.0,2041.0,4362801.0,
2479.0,4051.0,2047.0,2041.0,4362804.0,
2478.0,4050.0,2044.0,2041.0,4362808.0,
2480.0,4051.0,2041.0,2039.0,4362812.0,
2482.0,4051.0,2039.0,2040.0,4362816.0,
2482.0,4051.0,2039.0,2041.0,4362820.0,
2480.0,4052.0,2036.0,2039.0,4362823.0,
2478.0,4053.0,2034.0,2040.0,4362827.0,
2479.0,4050.0,2035.0,2035.0,4362831.0,
2481.0,4054.0,2036.0,2038.0,4362835.0,
2482.0,4052.0,2038.0,2038.0,4362839.0,
2481.0,4051.0,2039.0,2039.0,4362843.0,
2479.0,4052.0,2043.0,2036.0,4362846.0,
2479.0,4052.0,2046.0,2038.0,4362850.0,
2481.0,4052.0,2050.0,2039.0,4362854.0,
2482.0,4049.0,2056.0,2037.0,4362858.0,
2480.0,4052.0,2063.0,2039.0,4362862.0,
2478.0,4052.0,2071.0,2041.0,4362866.0,
2478.0,4052.0,2075.0,2040.0,4362869.0,
2480.0,4051.0,2083.0,2038.0,4362873.0,
2482.0,4052.0,2085.0,2039.0,4362877.0,
2481.0,4051.0,2092.0,2037.0,4362881.0,
2479.0,4053.0,2094.0,2041.0,4362885.0,
2477.0,4050.0,2100.0,2036.0,4362888.0,
2479.0,4051.0,2102.0,2037.0,4362892.0,
2482.0,4051.0,2110.0,2038.0,4362896.0,
2481.0,4052.0,2113.0,2036.0,4362900.0,
2479.0,4052.0,2117.0,2036.0,4362904.0,
2479.0,4053.0,2121.0,2036.0,4362908.0,
2480.0,4049.0,2125.0,2033.0,4362912.0,
2481.0,4053.0,2128.0,2034.0,4362916.0,
2481.0,4052.0,2128.0,2033.0,4362920.0,
2480.0,4049.0,2128.0,2032.0,4362924.0,
2478.0,4053.0,2130.0,2032.0,4362928.0,
2479.0,4052.0,2130.0,2029.0,4362932.0,
2480.0,4053.0,2127.0,2031.0,4362936.0,
2482.0,4051.0,2125.0,2028.0,4362940.0,
2480.0,4052.0,2121.0,2029.0,4362944.0,
2478.0,4050.0,2115.0,2027.0,4362947.0,
2478.0,4051.0,2113.0,2025.0,4362951.0,
2481.0,4050.0,2104.0,2027.0,4362955.0,
2482.0,4051.0,2099.0,2026.0,4362959.0,
2480.0,4051.0,2091.0,2029.0,4362963.0,
2478.0,4052.0,2083.0,2026.0,4362967.0,
2479.0,4052.0,2077.0,2026.0,4362971.0,
2482.0,4050.0,2073.0,2027.0,4362974.0,
2482.0,4052.0,2063.0,2026.0,4362978.0,
2482.0,4051.0,2059.0,2023.0,4362982.0,
2479.0,4051.0,2054.0,2022.0,4362986.0,
2478.0,4052.0,2048.0,2024.0,4362990.0,
2480.0,4052.0,2045.0,2023.0,4362994.0,
2483.0,4053.0,2043.0,2021.0,4362998.0,
2482.0,4051.0,2040.0,2022.0,4363002.0,
2479.0,4051.0,2035.0,2021.0,4363005.0,
2478.0,4052.0,2030.0,2021.0,4363010.0,
2481.0,4051.0,2028.0,2018.0,4363014.0,
2483.0,4053.0,2022.0,2018.0,4363018.0,
2482.0,4050.0,2015.0,2017.0,4363022.0,
2477.0,4049.0,2009.0,2018.0,4363025.0,
2478.0,4052.0,2003.0,2018.0,4363029.0,
2479.0,4051.0,2000.0,2016.0,4363033.0,
2482.0,4052.0,1996.0,2018.0,4363037.0,
2482.0,4051.0,1991.0,2016.0,4363041.0,
2481.0,4052.0,1981.0,2016.0,4363045.0,
2478.0,4051.0,1978.0,2014.0,4363048.0,
2479.0,4051.0,1974.0,2016.0,4363052.0,
2481.0,4050.0,1971.0,2013.0,4363056.0,
2481.0,4051.0,1965.0,2013.0,4363060.0,
2480.0,4051.0,1959.0,2015.0,4363064.0,
2478.0,4052.0,1955.0,2014.0,4363068.0,
2479.0,4053.0,1950.0,2017.0,4363071.0,
2481.0,4053.0,1948.0,2014.0,4363075.0,
2482.0,4050.0,1949.0,2011.0,4363079.0,
2481.0,4052.0,1948.0,2011.0,4363083.0,
2479.0,4052.0,1948.0,2013.0,4363087.0,
2478.0,4052.0,1948.0,2013.0,4363091.0,
2482.0,4053.0,1946.0,2011.0,4363095.0,
2482.0,4050.0,1946.0,2013.0,4363099.0,
2480.0,4051.0,1941.0,2015.0,4363103.0,
2478.0,4050.0,1940.0,2013.0,4363106.0,
2478.0,4050.0,1936.0,2011.0,4363110.0,
2481.0,4052.0,1938.0,2013.0,4363114.0,
2482.0,4052.0,1937.0,2012.0,4363118.0,
2481.0,4052.0,1938.0,2012.0,4363122.0,
2479.0,4051.0,1938.0,2013.0,4363125.0,
2478.0,4053.0,1941.0,2013.0,4363129.0,
2480.0,4052.0,1942.0,2012.0,4363133.0,
2482.0,4051.0,1947.0,2012.0,4363137.0,
2481.0,4053.0,1947.0,2014.0,4363141.0,
2480.0,4050.0,1952.0,2013.0,4363145.0,
2478.0,4052.0,1955.0,2016.0,4363148.0,
2479.0,4051.0,1955.0,2012.0,4363152.0,
2481.0,4050.0,1960.0,2012.0,4363156.0,
2481.0,4051.0,1961.0,2013.0,4363160.0,
2480.0,4051.0,1963.0,2013.0,4363164.0,
2477.0,4052.0,1965.0,2014.0,4363168.0,
2479.0,4051.0,1970.0,2015.0,4363172.0,
2481.0,4054.0,1967.0,2015.0,4363175.0,
2482.0,4053.0,1971.0,2014.0,4363179.0,
2480.0,4050.0,1973.0,2011.0,4363183.0,
2479.0,4050.0,1976.0,2015.0,4363187.0,
2479.0,4052.0,1974.0,2015.0,4363191.0,
2481.0,4050.0,1974.0,2014.0,4363195.0,
2482.0,4051.0,1972.0,2014.0,4363198.0,
2482.0,4052.0,1970.0,2014.0,4363202.0,
2479.0,4052.0,1968.0,2016.0,4363206.0,
2478.0,4053.0,1965.0,2016.0,4363210.0,
2479.0,4050.0,1959.0,2019.0,4363214.0,
2481.0,4052.0,1954.0,2018.0,4363217.0,
2482.0,4052.0,1950.0,2020.0,4363221.0,
2479.0,4051.0,1947.0,2021.0,4363225.0,
2478.0,4053.0,1942.0,2022.0,4363229.0,
2479.0,4051.0,1938.0,2024.0,4363233.0,
2482.0,4050.0,1936.0,2026.0,4363236.0,
2482.0,4052.0,1939.0,2030.0,4363240.0,
2480.0,4051.0,1937.0,2032.0,4363244.0,
2479.0,4053.0,1940.0,2034.0,4363248.0,
2479.0,4051.0,1943.0,2036.0,4363252.0,
2482.0,4052.0,1946.0,2042.0,4363256.0,
2483.0,4051.0,1950.0,2043.0,4363260.0,
2480.0,4052.0,1957.0,2046.0,4363263.0,
2477.0,4052.0,1959.0,2046.0,4363267.0,
2478.0,4051.0,1963.0,2050.0,4363271.0,
2481.0,4051.0,1968.0,2053.0,4363275.0,
2482.0,4052.0,1973.0,2054.0,4363279.0,
2481.0,4052.0,1980.0,2058.0,4363282.0,
2479.0,4052.0,1989.0,2062.0,4363286.0,
2479.0,4051.0,1995.0,2065.0,4363290.0,
2480.0,4052.0,2006.0,2068.0,4363294.0,
2483.0,4051.0,2021.0,2070.0,4363298.0,
2482.0,4052.0,2033.0,2070.0,4363302.0,
2478.0,4052.0,2050.0,2073.0,4363305.0,
2478.0,4052.0,2068.0,2074.0,4363309.0,
2480.0,4050.0,2089.0,2078.0,4363313.0,
2484.0,4051.0,2110.0,2080.0,4363317.0,
2482.0,4051.0,2133.0,2081.0,4363321.0,
2480.0,4052.0,2156.0,2084.0,4363325.0,
2478.0,4051.0,2181.0,2084.0,4363328.0,
2479.0,4051.0,2207.0,2087.0,4363332.0,
2477.0,4051.0,2234.0,2087.0,4363336.0,
2482.0,4053.0,2262.0,2088.0,4363340.0,
2480.0,4051.0,2287.0,2089.0,4363344.0,
2479.0,4051.0,2317.0,2091.0,4363347.0,
2478.0,4050.0,2345.0,2090.0,4363351.0,
2481.0,4050.0,2370.0,2091.0,4363355.0,
2482.0,4050.0,2392.0,2091.0,4363359.0,
2482.0,4053.0,2413.0,2092.0,4363363.0,
2478.0,4050.0,2433.0,2090.0,4363367.0,
2479.0,4052.0,2451.0,2095.0,4363371.0,
2481.0,4051.0,2467.0,2093.0,4363374.0,
2482.0,4052.0,2481.0,2095.0,4363378.0,
2481.0,4050.0,2497.0,2094.0,4363382.0,
2478.0,4051.0,2506.0,2096.0,4363386.0,
2477.0,4050.0,2518.0,2095.0,4363390.0,
2480.0,4051.0,2524.0,2098.0,4363394.0,
2482.0,4051.0,2530.0,2095.0,4363398.0,
2481.0,4053.0,2535.0,2097.0,4363401.0,
2479.0,4052.0,2536.0,2098.0,4363405.0,
2478.0,4051.0,2537.0,2092.0,4363409.0,
2479.0,4052.0,2534.0,2093.0,4363413.0,
2481.0,4052.0,2527.0,2093.0,4363417.0,
2481.0,4053.0,2523.0,2093.0,4363420.0,
2480.0,4050.0,2517.0,2091.0,4363424.0,
2479.0,4051.0,2509.0,2090.0,4363428.0,
2479.0,4052.0,2501.0,2091.0,4363432.0,
2481.0,4050.0,2488.0,2088.0,4363436.0,
2483.0,4052.0,2476.0,2087.0,4363440.0,
2480.0,4051.0,2468.0,2085.0,4363443.0,
2479.0,4050.0,2458.0,2084.0,4363447.0,
2478.0,4054.0,2445.0,2082.0,4363451.0,
2481.0,4051.0,2435.0,2082.0,4363455.0,
2481.0,4051.0,2419.0,2080.0,4363459.0,
2484.0,4051.0,2406.0,2077.0,4363462.0,
2479.0,4051.0,2393.0,2075.0,4363466.0,
2478.0,4052.0,2381.0,2072.0,4363470.0,
2480.0,4052.0,2368.0,2073.0,4363474.0,
2481.0,4052.0,2356.0,2068.0,4363478.0,
2482.0,4053.0,2347.0,2067.0,4363482.0,
2480.0,4051.0,2336.0,2065.0,4363485.0,
2479.0,4051.0,2326.0,2062.0,4363489.0,
2480.0,4052.0,2312.0,2061.0,4363493.0,
2481.0,4052.0,2301.0,2059.0,4363497.0,
2482.0,4052.0,2291.0,2058.0,4363501.0,
2480.0,4051.0,2281.0,2055.0,4363505.0,
2478.0,4052.0,2270.0,2058.0,4363508.0,
2480.0,4051.0,2261.0,2053.0,4363512.0,
2481.0,4051.0,2255.0,2052.0,4363516.0,
2481.0,4051.0,2242.0,2049.0,4363520.0,
2481.0,4052.0,2235.0,2050.0,4363524.0,
2478.0,4051.0,2231.0,2048.0,4363527.0,
2478.0,4051.0,2225.0,2047.0,4363531.0,
2480.0,4051.0,2217.0,2048.0,4363535.0,
2481.0,4051.0,2211.0,2045.0,4363539.0,
2481.0,4052.0,2203.0,2049.0,4363543.0,
2479.0,4082.0,2192.0,2048.0,4363546.0,
2478.0,4050.0,2188.0,2047.0,4363550.0,
2480.0,4050.0,2176.0,2050.0,4363554.0,
2482.0,4051.0,2169.0,2047.0,4363558.0,
2481.0,4053.0,2155.0,2048.0,4363562.0,
2480.0,4050.0,2145.0,2049.0,4363566.0,
2477.0,4051.0,2135.0,2050.0,4363569.0,
2479.0,4051.0,2126.0,2053.0,4363573.0,
2482.0,4050.0,2115.0,2047.0,4363577.0,
2481.0,4051.0,2111.0,2047.0,4363581.0,
2480.0,4053.0,2104.0,2050.0,4363585.0,
2478.0,4051.0,2101.0,2048.0,4363589.0,
2481.0,4051.0,2098.0,2050.0,4363592.0,
2481.0,4051.0,2096.0,2047.0,4363596.0,
2482.0,4050.0,2090.0,2048.0,4363600.0,
2480.0,4051.0,2087.0,2049.0,4363604.0,
2479.0,4052.0,2085.0,2051.0,4363608.0,
2479.0,4051.0,2082.0,2051.0,4363612.0,
2480.0,4052.0,2083.0,2050.0,4363615.0,
2483.0,4051.0,2087.0,2047.0,4363619.0,
2481.0,4051.0,2083.0,2048.0,4363623.0,
2478.0,4050.0,2084.0,2049.0,4363627.0,
2479.0,4051.0,2087.0,2049.0,4363631.0,
2480.0,4053.0,2084.0,2048.0,4363635.0,
2481.0,4051.0,2090.0,2047.0,4363638.0,
2482.0,4052.0,2092.0,2049.0,4363642.0,
2478.0,4052.0,2100.0,2044.0,4363646.0,
2478.0,4053.0,2100.0,2047.0,4363650.0,
2479.0,4051.0,2102.0,2043.0,4363654.0,
2481.0,4050.0,2103.0,2045.0,4363657.0,
2481.0,4051.0,2105.0,2042.0,4363661.0,
2481.0,4051.0,2103.0,2043.0,4363665.0,
2478.0,4050.0,2102.0,2041.0,4363669.0,
2479.0,4052.0,2104.0,2043.0,4363673.0,
2481.0,4051.0,2105.0,2038.0,4363677.0,
2483.0,4051.0,2108.0,2038.0,4363680.0,
2480.0,4050.0,2114.0,2036.0,4363684.0,
2478.0,4050.0,2115.0,2034.0,4363688.0,
2479.0,4053.0,2121.0,2032.0,4363692.0,
2482.0,4051.0,2123.0,2031.0,4363696.0,
2483.0,4053.0,2122.0,2032.0,4363700.0,
2481.0,4052.0,2123.0,2027.0,4363703.0,
2479.0,4052.0,2124.0,2029.0,4363707.0,
2478.0,4052.0,2120.0,2029.0,4363711.0,
2480.0,4050.0,2119.0,2029.0,4363715.0,
2482.0,4051.0,2113.0,2026.0,4363719.0,
2481.0,4051.0,2113.0,2024.0,4363722.0,
2477.0,4052.0,2110.0,2024.0,4363726.0,
2477.0,4052.0,2107.0,2024.0,4363730.0,
2479.0,4051.0,2102.0,2024.0,4363734.0,
2482.0,4052.0,2099.0,2025.0,4363738.0,
2482.0,4051.0,2095.0,2021.0,4363742.0,
2480.0,4052.0,2090.0,2023.0,4363745.0,
2477.0,4053.0,2085.0,2022.0,4363749.0,
2479.0,4051.0,2077.0,2021.0,4363753.0,
2481.0,4050.0,2074.0,2020.0,4363757.0,
2482.0,4051.0,2068.0,2021.0,4363761.0,
2481.0,4052.0,2061.0,2016.0,4363765.0,
2478.0,4055.0,2054.0,2021.0,4363768.0,
2479.0,4051.0,2047.0,2016.0,4363772.0,
2480.0,4051.0,2041.0,2015.0,4363776.0,
2482.0,4052.0,2036.0,2018.0,4363780.0,
2481.0,4051.0,2027.0,2011.0,4363784.0,
2479.0,4051.0,2022.0,2014.0,4363788.0,
2482.0,4051.0,2020.0,2011.0,4363792.0,
2481.0,4053.0,2016.0,2013.0,4363795.0,
2483.0,4052.0,2005.0,2015.0,4363799.0,
2481.0,4050.0,2001.0,2014.0,4363803.0,
2478.0,4053.0,1997.0,2014.0,4363807.0,
2479.0,4050.0,1993.0,2015.0,4363811.0,
2480.0,4050.0,1985.0,2015.0,4363814.0,
2481.0,4051.0,1978.0,2016.0,4363818.0,
2482.0,4051.0,1971.0,2016.0,4363822.0,
2480.0,4052.0,1965.0,2016.0,4363826.0,
2478.0,4051.0,1962.0,2016.0,4363830.0,
2479.0,4052.0,1955.0,2015.0,4363833.0,
2481.0,4052.0,1952.0,2015.0,4363837.0,
2482.0,4050.0,1948.0,2014.0,4363841.0,
2480.0,4051.0,1945.0,2017.0,4363845.0,
2479.0,4049.0,1942.0,2017.0,4363849.0,
2479.0,4051.0,1937.0,2018.0,4363853.0,
2481.0,4050.0,1937.0,2018.0,4363857.0,
2483.0,4054.0,1939.0,2021.0,4363861.0,
2480.0,4052.0,1939.0,2019.0,4363865.0,
2479.0,4052.0,1940.0,2019.0,4363868.0,
2478.0,4049.0,1942.0,2019.0,4363872.0,
2481.0,4051.0,1945.0,2018.0,4363876.0,
2481.0,4053.0,1948.0,2020.0,4363880.0,
2481.0,4052.0,1951.0,2018.0,4363884.0,
2480.0,4051.0,1952.0,2017.0,4363887.0,
2478.0,4049.0,1956.0,2017.0,4363891.0,
2479.0,4052.0,1959.0,2018.0,4363895.0,
2481.0,4052.0,1961.0,2020.0,4363899.0,
2481.0,4050.0,1965.0,2017.0,4363903.0,
2480.0,4052.0,1967.0,2019.0,4363906.0,
2478.0,4052.0,1968.0,2016.0,4363910.0,
2479.0,4052.0,1969.0,2017.0,4363914.0,
2482.0,4052.0,1968.0,2015.0,4363918.0,
2482.0,4051.0,1970.0,2013.0,4363922.0,
2479.0,4053.0,1973.0,2013.0,4363926.0,
2478.0,4052.0,1969.0,2013.0,4363930.0,
2479.0,4051.0,1965.0,2015.0,4363933.0,
2481.0,4052.0,1963.0,2015.0,4363937.0,
2483.0,4053.0,1960.0,2015.0,4363941.0,
2480.0,4051.0,1960.0,2013.0,4363945.0,
2479.0,4051.0,1960.0,2012.0,4363949.0,
2479.0,4053.0,1960.0,2014.0,4363953.0,
2480.0,4051.0,1959.0,2011.0,4363957.0,
2482.0,4051.0,1961.0,2013.0,4363961.0,
2480.0,4051.0,1961.0,2010.0,4363964.0,
2478.0,4051.0,1962.0,2011.0,4363968.0,
2478.0,4051.0,1961.0,2013.0,4363972.0,
2481.0,4051.0,1958.0,2014.0,4363976.0,
2481.0,4054.0,1955.0,2012.0,4363980.0,
2481.0,4051.0,1956.0,2012.0,4363984.0,
2480.0,4052.0,1953.0,2014.0,4363987.0,
2478.0,4051.0,1950.0,2013.0,4363991.0,
2480.0,4051.0,1946.0,2012.0,4363995.0,
2481.0,4051.0,1945.0,2012.0,4363999.0,
2482.0,4052.0,1945.0,2014.0,4364003.0,
2479.0,4051.0,1943.0,2012.0,4364007.0,
2479.0,4052.0,1945.0,2014.0,4364010.0,
2478.0,4051.0,1941.0,2015.0,4364014.0,
2481.0,4049.0,1940.0,2014.0,4364018.0,
2481.0,4052.0,1940.0,2018.0,4364022.0,
2481.0,4051.0,1940.0,2020.0,4364026.0,
2478.0,4052.0,1941.0,2019.0,4364030.0,
2478.0,4051.0,1936.0,2020.0,4364033.0,
2481.0,4052.0,1938.0,2024.0,4364037.0,
2482.0,4052.0,1939.0,2026.0,4364041.0,
2480.0,4052.0,1938.0,2025.0,4364045.0,
2479.0,4051.0,1936.0,2031.0,4364049.0,
2478.0,4052.0,1935.0,2029.0,4364052.0,
2484.0,4052.0,1936.0,2035.0,4364056.0,
2481.0,4051.0,1939.0,2041.0,4364060.0,
2481.0,4051.0,1945.0,2043.0,4364064.0,
2478.0,4050.0,1948.0,2045.0,4364068.0,
2479.0,4051.0,1955.0,2046.0,4364072.0,
2480.0,4052.0,1960.0,2054.0,4364076.0,
2482.0,4052.0,1968.0,2057.0,4364080.0,
2480.0,4053.0,1977.0,2058.0,4364084.0,
2479.0,4051.0,1988.0,2059.0,4364088.0,
2479.0,4052.0,1999.0,2065.0,4364092.0,
2480.0,4049.0,2014.0,2065.0,4364096.0,
2481.0,4054.0,2029.0,2069.0,4364100.0,
2482.0,4051.0,2044.0,2070.0,4364103.0,
2479.0,4052.0,2062.0,2074.0,4364107.0,
2478.0,4052.0,2079.0,2078.0,4364111.0,
2479.0,4051.0,2099.0,2078.0,4364115.0,
2481.0,4052.0,2121.0,2083.0,4364119.0,
2482.0,4051.0,2142.0,2086.0,4364123.0,
2479.0,4052.0,2166.0,2086.0,4364127.0,
2479.0,4050.0,2190.0,2087.0,4364130.0,
2479.0,4051.0,2218.0,2088.0,4364134.0,
2482.0,4052.0,2243.0,2089.0,4364138.0,
2482.0,4050.0,2272.0,2093.0,4364142.0,
2480.0,4049.0,2297.0,2092.0,4364146.0,
2478.0,4051.0,2323.0,2095.0,4364150.0,
2478.0,4052.0,2345.0,2093.0,4364153.0,
2480.0,4050.0,2370.0,2095.0,4364157.0,
2483.0,4051.0,2395.0,2095.0,4364161.0,
2480.0,4052.0,2413.0,2097.0,4364165.0,
2478.0,4051.0,2435.0,2096.0,4364169.0,
2479.0,4053.0,2454.0,2097.0,4364173.0,
2481.0,4050.0,2472.0,2098.0,4364176.0,
2483.0,4050.0,2488.0,2098.0,4364180.0,
2481.0,4052.0,2503.0,2099.0,4364184.0,
2479.0,4051.0,2514.0,2101.0,4364188.0,
2478.0,4051.0,2523.0,2099.0,4364192.0,
2481.0,4052.0,2529.0,2099.0,4364196.0,
2481.0,4050.0,2537.0,2099.0,4364200.0,
2481.0,4052.0,2539.0,2101.0,4364204.0,
2479.0,4050.0,2544.0,2105.0,4364207.0,
2477.0,4051.0,2541.0,2101.0,4364211.0,
2478.0,4051.0,2546.0,2101.0,4364215.0,
2482.0,4051.0,2547.0,2097.0,4364219.0,
2482.0,4053.0,2547.0,2100.0,4364223.0,
2480.0,4050.0,2544.0,2100.0,4364227.0,
2478.0,4052.0,2536.0,2100.0,4364230.0,
2482.0,4050.0,2530.0,2099.0,4364234.0,
2482.0,4050.0,2520.0,2098.0,4364238.0,
2482.0,4052.0,2510.0,2097.0,4364242.0,
2479.0,4051.0,2498.0,2095.0,4364246.0,
2479.0,4053.0,2488.0,2098.0,4364250.0,
2474.0,4051.0,2476.0,2096.0,4364253.0,
2481.0,4051.0,2463.0,2094.0,4364257.0,
2483.0,4051.0,2449.0,2093.0,4364261.0,
2481.0,4052.0,2437.0,2091.0,4364265.0,
2479.0,4050.0,2425.0,2087.0,4364269.0,
2478.0,4053.0,2411.0,2087.0,4364272.0,
2480.0,4051.0,2400.0,2084.0,4364276.0,
2483.0,4051.0,2389.0,2083.0,4364280.0,
2482.0,4053.0,2377.0,2083.0,4364284.0,
2479.0,4051.0,2369.0,2079.0,4364288.0,
2475.0,4052.0,2357.0,2078.0,4364292.0,
2479.0,4050.0,2349.0,2073.0,4364295.0,
2479.0,4053.0,2340.0,2074.0,4364299.0,
2481.0,4049.0,2333.0,2070.0,4364303.0,
2480.0,4052.0,2320.0,2072.0,4364307.0,
2478.0,4051.0,2310.0,2068.0,4364311.0,
2478.0,4052.0,2299.0,2066.0,4364314.0,
2481.0,4052.0,2288.0,2065.0,4364318.0,
2482.0,4051.0,2282.0,2062.0,4364322.0,
2480.0,4051.0,2273.0,2062.0,4364326.0,
2480.0,4052.0,2262.0,2063.0,4364330.0,
2479.0,4050.0,2253.0,2060.0,4364334.0,
2481.0,4052.0,2245.0,2061.0,4364337.0,
2482.0,4051.0,2230.0,2059.0,4364341.0,
2482.0,4051.0,2219.0,2059.0,4364345.0,
2479.0,4050.0,2207.0,2058.0,4364349.0,
2479.0,4056.0,2196.0,2056.0,4364353.0,
2479.0,4051.0,2186.0,2056.0,4364356.0,
2483.0,4052.0,2177.0,2056.0,4364360.0,
2480.0,4049.0,2167.0,2057.0,4364364.0,
2480.0,4052.0,2156.0,2053.0,4364368.0,
2478.0,4051.0,2149.0,2052.0,4364372.0,
2479.0,4050.0,2140.0,2054.0,4364375.0,
2483.0,4050.0,2137.0,2052.0,4364379.0,
2481.0,4050.0,2132.0,2052.0,4364383.0,
2480.0,4052.0,2126.0,2054.0,4364387.0,
2480.0,4051.0,2122.0,2055.0,4364391.0,
2479.0,4051.0,2119.0,2051.0,4364395.0,
2482.0,4053.0,2117.0,2056.0,4364399.0,
2482.0,4050.0,2111.0,2051.0,4364403.0,
2480.0,4052.0,2109.0,2053.0,4364407.0,
2478.0,4049.0,2106.0,2052.0,4364410.0,
2479.0,4051.0,2100.0,2052.0,4364414.0,
2480.0,4051.0,2099.0,2049.0,4364418.0,
2483.0,4053.0,2098.0,2050.0,4364422.0,
2481.0,4052.0,2097.0,2049.0,4364426.0,
2479.0,4052.0,2096.0,2051.0,4364429.0,
2478.0,4051.0,2096.0,2049.0,4364433.0,
2480.0,4051.0,2096.0,2049.0,4364437.0,
2482.0,4050.0,2101.0,2048.0,4364441.0,
2481.0,4052.0,2101.0,2045.0,4364445.0,
2479.0,4050.0,2103.0,2049.0,4364449.0,
2478.0,4052.0,2103.0,2049.0,4364452.0,
2479.0,4051.0,2105.0,2045.0,4364456.0,
2481.0,4050.0,2104.0,2044.0,4364460.0,
2482.0,4051.0,2102.0,2046.0,4364464.0,
2480.0,4051.0,2100.0,2045.0,4364468.0,
2478.0,4053.0,2102.0,2043.0,4364472.0,
2479.0,4051.0,2099.0,2041.0,4364475.0,
2483.0,4052.0,2099.0,2042.0,4364479.0,
2482.0,4051.0,2095.0,2041.0,4364483.0,
2480.0,4052.0,2094.0,2042.0,4364487.0,
2478.0,4050.0,2095.0,2036.0,4364491.0,
2478.0,4052.0,2098.0,2041.0,4364495.0,
2481.0,4051.0,2100.0,2042.0,4364498.0,
2482.0,4052.0,2100.0,2041.0,4364502.0,
2481.0,4052.0,2102.0,2040.0,4364506.0,
2478.0,4051.0,2105.0,2037.0,4364510.0,
2482.0,4050.0,2108.0,2037.0,4364514.0,
2481.0,4052.0,2106.0,2039.0,4364518.0,
2483.0,4051.0,2106.0,2036.0,4364522.0,
2481.0,4053.0,2101.0,2035.0,4364525.0,
2479.0,4052.0,2093.0,2036.0,4364529.0,
2479.0,4052.0,2088.0,2034.0,4364533.0,
2480.0,4051.0,2080.0,2034.0,4364537.0,
2482.0,4050.0,2073.0,2029.0,4364541.0,
2482.0,4052.0,2067.0,2031.0,4364545.0,
2479.0,4051.0,2056.0,2024.0,4364548.0,
2478.0,4052.0,2050.0,2027.0,4364552.0,
2480.0,4051.0,2045.0,2022.0,4364556.0,
2482.0,4051.0,2040.0,2023.0,4364560.0,
2482.0,4052.0,2032.0,2019.0,4364564.0,
2480.0,4051.0,2021.0,2017.0,4364568.0,
2478.0,4052.0,2014.0,2019.0,4364571.0,
2480.0,4051.0,2005.0,2018.0,4364575.0,
2481.0,4051.0,1998.0,2016.0,4364579.0,
2482.0,4054.0,1991.0,2019.0,4364583.0,
2481.0,4052.0,1986.0,2018.0,4364587.0,
2477.0,4051.0,1977.0,2017.0,4364590.0,
2480.0,4051.0,1971.0,2016.0,4364594.0,
2479.0,4051.0,1964.0,2017.0,4364598.0,
2482.0,4050.0,1959.0,2018.0,4364602.0,
2482.0,4051.0,1952.0,2017.0,4364606.0,
2478.0,4051.0,1951.0,2016.0,4364610.0,
2478.0,4053.0,1951.0,2018.0,4364613.0,
2480.0,4051.0,1948.0,2015.0,4364617.0,
2480.0,4050.0,1946.0,2014.0,4364621.0,
2481.0,4050.0,1943.0,2016.0,4364625.0,
2479.0,4052.0,1943.0,2017.0,4364629.0,
2480.0,4051.0,1941.0,2015.0,4364633.0,
2480.0,4052.0,1938.0,2016.0,4364636.0,
2481.0,4050.0,1936.0,2014.0,4364640.0,
2482.0,4052.0,1936.0,2018.0,4364644.0,
2480.0,4050.0,1934.0,2016.0,4364648.0,
2478.0,4052.0,1930.0,2017.0,4364652.0,
2479.0,4052.0,1933.0,2017.0,4364655.0,
2481.0,4051.0,1934.0,2018.0,4364659.0,
2482.0,4051.0,1934.0,2017.0,4364663.0,
2480.0,4050.0,1937.0,2016.0,4364667.0,
2478.0,4052.0,1938.0,2018.0,4364671.0,
2479.0,4048.0,1939.0,2018.0,4364675.0,
2480.0,4052.0,1937.0,2020.0,4364679.0,
2481.0,4051.0,1932.0,2016.0,4364682.0,
2481.0,4052.0,1930.0,2021.0,4364686.0,
2479.0,4052.0,1925.0,2019.0,4364690.0,
2479.0,4051.0,1927.0,2019.0,4364694.0,
2483.0,4052.0,1922.0,2019.0,4364698.0,
2481.0,4051.0,1923.0,2019.0,4364702.0,
2481.0,4052.0,1918.0,2021.0,4364705.0,
2479.0,4051.0,1918.0,2021.0,4364709.0,
2478.0,4050.0,1920.0,2019.0,4364713.0,
2480.0,4051.0,1920.0,2021.0,4364717.0,
2481.0,4053.0,1922.0,2023.0,4364721.0,
2481.0,4049.0,1923.0,2016.0,4364725.0,
2480.0,4052.0,1926.0,2022.0,4364728.0,
2478.0,4052.0,1926.0,2020.0,4364732.0,
2479.0,4052.0,1928.0,2021.0,4364736.0,
2482.0,4052.0,1930.0,2020.0,4364740.0,
2481.0,4052.0,1930.0,2020.0,4364744.0,
2480.0,4052.0,1934.0,2018.0,4364747.0,
2479.0,4053.0,1933.0,2020.0,4364751.0,
2479.0,4053.0,1936.0,2019.0,4364755.0,
2481.0,4050.0,1938.0,2017.0,4364759.0,
2481.0,4052.0,1938.0,2020.0,4364763.0,
2479.0,4051.0,1938.0,2018.0,4364767.0,
2478.0,4052.0,1935.0,2019.0,4364770.0,
2478.0,4052.0,1935.0,2018.0,4364774.0,
2479.0,4052.0,1936.0,2017.0,4364778.0,
2482.0,4051.0,1930.0,2019.0,4364782.0,
2481.0,4053.0,1932.0,2019.0,4364786.0,
2479.0,4051.0,1927.0,2017.0,4364789.0,
2477.0,4050.0,1931.0,2017.0,4364793.0,
2479.0,4053.0,1930.0,2019.0,4364797.0,
2481.0,4052.0,1928.0,2016.0,4364801.0,
2482.0,4054.0,1925.0,2018.0,4364805.0,
2478.0,4050.0,1922.0,2015.0,4364808.0,
2476.0,4051.0,1920.0,2016.0,4364812.0,
2478.0,4051.0,1916.0,2018.0,4364816.0,
2481.0,4050.0,1911.0,2018.0,4364820.0,
2481.0,4052.0,1910.0,2019.0,4364824.0,
2479.0,4050.0,1909.0,2019.0,4364828.0,
2477.0,4053.0,1908.0,2025.0,4364831.0,
2479.0,4052.0,1904.0,2023.0,4364835.0,
2481.0,4051.0,1903.0,2023.0,4364839.0,
2482.0,4051.0,1903.0,2024.0,4364843.0,
2480.0,4053.0,1899.0,2027.0,4364847.0,
2477.0,4050.0,1897.0,2026.0,4364851.0,
2477.0,4051.0,1896.0,2029.0,4364854.0,
2480.0,4051.0,1896.0,2032.0,4364858.0,
2482.0,4052.0,1894.0,2034.0,4364862.0,
2481.0,4050.0,1895.0,2035.0,4364866.0,
2478.0,4051.0,1897.0,2038.0,4364870.0,
2478.0,4051.0,1895.0,2038.0,4364873.0,
2479.0,4053.0,1895.0,2042.0,4364877.0,
2481.0,4051.0,1893.0,2041.0,4364881.0,
2481.0,4051.0,1895.0,2045.0,4364885.0,
2478.0,4052.0,1899.0,2047.0,4364889.0,
2477.0,4053.0,1903.0,2054.0,4364893.0,
2478.0,4051.0,1912.0,2054.0,4364897.0,
2480.0,4052.0,1921.0,2058.0,4364900.0,
2481.0,4051.0,1931.0,2061.0,4364904.0,
2479.0,4051.0,1947.0,2064.0,4364908.0,
2478.0,4051.0,1960.0,2067.0,4364912.0,
2479.0,4052.0,1980.0,2070.0,4364916.0,
2481.0,4051.0,2002.0,2073.0,4364920.0,
2481.0,4054.0,2025.0,2077.0,4364924.0,
2479.0,4051.0,2052.0,2079.0,4364928.0,
2472.0,4052.0,2080.0,2085.0,4364932.0,
2479.0,4051.0,2111.0,2082.0,4364936.0,
2481.0,4052.0,2141.0,2087.0,4364940.0,
2481.0,4050.0,2172.0,2090.0,4364944.0,
2480.0,4051.0,2206.0,2091.0,4364948.0,
2477.0,4051.0,2237.0,2093.0,4364952.0,
2479.0,4051.0,2265.0,2096.0,4364956.0,
2482.0,4051.0,2296.0,2099.0,4364960.0,
2482.0,4052.0,2327.0,2099.0,4364964.0,
2480.0,4052.0,2351.0,2104.0,4364967.0,
2477.0,4052.0,2378.0,2104.0,4364971.0,
2479.0,4051.0,2403.0,2103.0,4364975.0,
2481.0,4052.0,2426.0,2103.0,4364979.0,
2482.0,4050.0,2451.0,2106.0,4364983.0,
2481.0,4051.0,2473.0,2105.0,4364987.0,
2477.0,4052.0,2490.0,2106.0,4364990.0,
2479.0,4050.0,2508.0,2104.0,4364994.0,
2480.0,4052.0,2524.0,2104.0,4364998.0,
2482.0,4050.0,2541.0,2105.0,4365002.0,
2482.0,4051.0,2551.0,2107.0,4365006.0,
2480.0,4050.0,2562.0,2105.0,4365009.0,
2477.0,4052.0,2568.0,2108.0,4365013.0,
2480.0,4051.0,2572.0,2108.0,4365017.0,
2481.0,4051.0,2572.0,2109.0,4365021.0,
2482.0,4052.0,2570.0,2109.0,4365025.0,
2481.0,4050.0,2567.0,2107.0,4365029.0,
2478.0,4051.0,2562.0,2109.0,4365032.0,
2479.0,4050.0,2556.0,2105.0,4365036.0,
2482.0,4052.0,2549.0,2106.0,4365040.0,
2481.0,4051.0,2542.0,2104.0,4365044.0,
2481.0,4053.0,2532.0,2105.0,4365048.0,
2478.0,4051.0,2522.0,2104.0,4365052.0,
2478.0,4051.0,2511.0,2103.0,4365055.0,
2481.0,4050.0,2501.0,2102.0,4365059.0,
2482.0,4050.0,2492.0,2100.0,4365063.0,
2481.0,4052.0,2480.0,2101.0,4365067.0,
2480.0,4050.0,2469.0,2096.0,4365071.0,
2480.0,4052.0,2455.0,2100.0,4365074.0,
2479.0,4051.0,2445.0,2095.0,4365078.0,
2482.0,4050.0,2430.0,2095.0,4365082.0,
2481.0,4051.0,2419.0,2095.0,4365086.0,
2479.0,4051.0,2403.0,2092.0,4365090.0,
2479.0,4052.0,2391.0,2093.0,4365094.0,
2479.0,4051.0,2375.0,2091.0,4365097.0,
2483.0,4053.0,2364.0,2088.0,4365101.0,
2483.0,4051.0,2350.0,2084.0,4365105.0,
2480.0,4051.0,2335.0,2084.0,4365109.0,
2478.0,4051.0,2322.0,2081.0,4365113.0,
2480.0,4052.0,2307.0,2080.0,4365116.0,
2481.0,4051.0,2295.0,2078.0,4365120.0,
2481.0,4049.0,2283.0,2077.0,4365124.0,
2482.0,4051.0,2270.0,2074.0,4365128.0,
2479.0,4052.0,2256.0,2073.0,4365132.0,
2480.0,4052.0,2243.0,2070.0,4365136.0,
2482.0,4051.0,2228.0,2072.0,4365140.0,
2482.0,4051.0,2219.0,2065.0,4365144.0,
2481.0,4051.0,2208.0,2068.0,4365148.0,
2479.0,4051.0,2196.0,2063.0,4365152.0,
2479.0,4051.0,2181.0,2061.0,4365156.0,
2482.0,4049.0,2172.0,2061.0,4365160.0,
2482.0,4050.0,2161.0,2058.0,4365164.0,
2480.0,4052.0,2151.0,2056.0,4365169.0,
2479.0,4052.0,2139.0,2057.0,4365172.0,
2479.0,4049.0,2135.0,2055.0,4365176.0,
2481.0,4050.0,2122.0,2050.0,4365180.0,
2482.0,4053.0,2116.0,2052.0,4365184.0,
2480.0,4050.0,2107.0,2049.0,4365188.0,
2478.0,4053.0,2098.0,2050.0,4365192.0,
2479.0,4050.0,2094.0,2048.0,4365196.0,
2481.0,4052.0,2088.0,2048.0,4365199.0,
2481.0,4050.0,2087.0,2044.0,4365203.0,
2480.0,4053.0,2083.0,2048.0,4365207.0,
2478.0,4051.0,2082.0,2047.0,4365211.0,
2478.0,4053.0,2077.0,2045.0,4365215.0,
2481.0,4051.0,2076.0,2046.0,4365219.0,
2482.0,4051.0,2073.0,2045.0,4365222.0,
2482.0,4051.0,2072.0,2043.0,4365226.0,
2480.0,4051.0,2073.0,2044.0,4365230.0,
2478.0,4051.0,2068.0,2048.0,4365235.0,
2480.0,4050.0,2068.0,2045.0,4365239.0,
2481.0,4052.0,2071.0,2047.0,4365243.0,
2480.0,4051.0,2071.0,2046.0,4365247.0,
2479.0,4051.0,2070.0,2046.0,4365251.0,
2479.0,4050.0,2069.0,2044.0,4365255.0,
2479.0,4052.0,2069.0,2045.0,4365258.0,
2483.0,4050.0,2070.0,2045.0,4365262.0,
2482.0,4053.0,2068.0,2046.0,4365266.0,
2479.0,4050.0,2066.0,2045.0,4365270.0,
2479.0,4053.0,2066.0,2044.0,4365274.0,
2477.0,4055.0,2064.0,2041.0,4365278.0,
2481.0,4050.0,2063.0,2041.0,4365281.0,
2482.0,4050.0,2066.0,2042.0,4365285.0,
2479.0,4052.0,2065.0,2042.0,4365289.0,
2478.0,4048.0,2071.0,2038.0,4365293.0,
2479.0,4053.0,2075.0,2037.0,4365296.0,
2480.0,4051.0,2078.0,2037.0,4365300.0,
2483.0,4051.0,2082.0,2035.0,4365304.0,
2480.0,4052.0,2080.0,2037.0,4365308.0,
2477.0,4051.0,2085.0,2031.0,4365312.0,
2479.0,4050.0,2087.0,2034.0,4365316.0,
2478.0,4051.0,2088.0,2030.0,4365319.0,
2482.0,4051.0,2088.0,2029.0,4365323.0,
2481.0,4050.0,2082.0,2030.0,4365327.0,
2479.0,4050.0,2079.0,2029.0,4365331.0,
2478.0,4051.0,2076.0,2030.0,4365334.0,
2479.0,4051.0,2074.0,2028.0,4365338.0,
2482.0,4050.0,2069.0,2031.0,4365342.0,
2481.0,4053.0,2060.0,2028.0,4365346.0,
2479.0,4050.0,2055.0,2027.0,4365350.0,
2477.0,4053.0,2051.0,2027.0,4365354.0,
2479.0,4051.0,2044.0,2027.0,4365357.0,
2481.0,4051.0,2039.0,2025.0,4365361.0,
2481.0,4052.0,2033.0,2026.0,4365365.0,
2480.0,4051.0,2027.0,2026.0,4365369.0,
2477.0,4052.0,2022.0,2027.0,4365373.0,
2477.0,4050.0,2015.0,2025.0,4365377.0,
2481.0,4052.0,2007.0,2028.0,4365380.0,
2482.0,4049.0,2000.0,2024.0,4365384.0,
2480.0,4051.0,1994.0,2025.0,4365388.0,
2478.0,4051.0,1988.0,2023.0,4365392.0,
2478.0,4052.0,1978.0,2026.0,4365396.0,
2478.0,4051.0,1973.0,2021.0,4365400.0,
2482.0,4053.0,1966.0,2024.0,4365403.0,
2480.0,4052.0,1962.0,2023.0,4365407.0,
2478.0,4051.0,1957.0,2020.0,4365411.0,
2477.0,4053.0,1948.0,2023.0,4365415.0,
2479.0,4053.0,1944.0,2017.0,4365419.0,
2482.0,4053.0,1938.0,2021.0,4365423.0,
2481.0,4051.0,1936.0,2021.0,4365426.0,
2477.0,4051.0,1928.0,2020.0,4365430.0,
2477.0,4051.0,1926.0,2018.0,4365434.0,
2478.0,4051.0,1921.0,2021.0,4365438.0,
2480.0,4051.0,1914.0,2018.0,4365442.0,
2481.0,4053.0,1909.0,2022.0,4365445.0,
2478.0,4050.0,1902.0,2020.0,4365449.0,
2477.0,4051.0,1894.0,2019.0,4365453.0,
2478.0,4053.0,1887.0,2023.0,4365457.0,
2484.0,4050.0,1885.0,2018.0,4365461.0,
2481.0,4051.0,1879.0,2020.0,4365465.0,
2480.0,4052.0,1876.0,2019.0,4365468.0,
2477.0,4050.0,1876.0,2015.0,4365472.0,
2478.0,4052.0,1871.0,2018.0,4365476.0,
2479.0,4051.0,1873.0,2018.0,4365480.0,
2482.0,4052.0,1869.0,2018.0,4365484.0,
2480.0,4050.0,1865.0,2016.0,4365487.0,
2477.0,4051.0,1865.0,2016.0,4365491.0,
2478.0,4054.0,1862.0,2017.0,4365495.0,
2480.0,4052.0,1860.0,2015.0,4365499.0,
2482.0,4051.0,1856.0,2014.0,4365503.0,
2480.0,4051.0,1858.0,2017.0,4365507.0,
2478.0,4052.0,1853.0,2018.0,4365510.0,
2478.0,4051.0,1853.0,2016.0,4365514.0,
2478.0,4051.0,1852.0,2018.0,4365518.0,
2480.0,4051.0,1848.0,2017.0,4365522.0,
2481.0,4053.0,1846.0,2016.0,4365526.0,
2479.0,4051.0,1846.0,2014.0,4365529.0,
2478.0,4052.0,1844.0,2014.0,4365533.0,
2477.0,4053.0,1845.0,2014.0,4365537.0,
2480.0,4051.0,1845.0,2011.0,4365541.0,
2481.0,4052.0,1843.0,2015.0,4365545.0,
2479.0,4051.0,1849.0,2014.0,4365548.0,
2478.0,4051.0,1850.0,2014.0,4365552.0,
2477.0,4051.0,1857.0,2013.0,4365556.0,
2480.0,4052.0,1861.0,2013.0,4365560.0,
2481.0,4052.0,1865.0,2012.0,4365564.0,
2480.0,4053.0,1871.0,2014.0,4365568.0,
2478.0,4051.0,1876.0,2016.0,4365572.0,
2478.0,4052.0,1880.0,2014.0,4365575.0,
2479.0,4052.0,1886.0,2015.0,4365579.0,
2481.0,4052.0,1891.0,2014.0,4365583.0,
2482.0,4050.0,1895.0,2012.0,4365587.0,
2479.0,4053.0,1900.0,2014.0,4365591.0,
2479.0,4049.0,1905.0,2015.0,4365594.0,
2479.0,4053.0,1909.0,2014.0,4365598.0,
2483.0,4052.0,1910.0,2015.0,4365602.0,
2481.0,4051.0,1914.0,2015.0,4365606.0,
2480.0,4052.0,1916.0,2014.0,4365610.0,
2478.0,4049.0,1914.0,2011.0,4365614.0,
2479.0,4052.0,1912.0,2015.0,4365617.0,
2481.0,4052.0,1910.0,2014.0,4365621.0,
2482.0,4050.0,1907.0,2012.0,4365625.0,
2479.0,4053.0,1900.0,2014.0,4365629.0,
2479.0,4050.0,1897.0,2011.0,4365633.0,
2479.0,4052.0,1892.0,2011.0,4365637.0,
2481.0,4051.0,1889.0,2011.0,4365640.0,
2482.0,4051.0,1883.0,2010.0,4365644.0,
2481.0,4052.0,1880.0,2012.0,4365648.0,
2479.0,4050.0,1878.0,2010.0,4365652.0,
2478.0,4052.0,1876.0,2014.0,4365656.0,
2480.0,4049.0,1870.0,2013.0,4365660.0,
2482.0,4051.0,1876.0,2012.0,4365663.0,
2482.0,4050.0,1871.0,2014.0,4365667.0,
2479.0,4052.0,1870.0,2013.0,4365671.0,
2477.0,4051.0,1869.0,2017.0,4365675.0,
2480.0,4052.0,1865.0,2019.0,4365679.0,
2482.0,4051.0,1866.0,2020.0,4365682.0,
2483.0,4051.0,1862.0,2023.0,4365686.0,
2479.0,4050.0,1858.0,2023.0,4365690.0,
2478.0,4052.0,1858.0,2029.0,4365694.0,
2478.0,4050.0,1855.0,2027.0,4365698.0,
2481.0,4052.0,1852.0,2031.0,4365702.0,
2481.0,4051.0,1852.0,2034.0,4365706.0,
2480.0,4053.0,1852.0,2037.0,4365710.0,
2479.0,4051.0,1850.0,2037.0,4365713.0,
2480.0,4052.0,1851.0,2039.0,4365717.0,
2482.0,4052.0,1848.0,2043.0,4365721.0,
2483.0,4051.0,1850.0,2043.0,4365725.0,
2481.0,4052.0,1851.0,2048.0,4365729.0,
2478.0,4050.0,1853.0,2048.0,4365732.0,
2478.0,4051.0,1858.0,2052.0,4365736.0,
2479.0,4052.0,1863.0,2055.0,4365740.0,
2483.0,4050.0,1870.0,2058.0,4365744.0,
2481.0,4052.0,1880.0,2062.0,4365748.0,
2479.0,4050.0,1894.0,2067.0,4365752.0,
2478.0,4052.0,1910.0,2067.0,4365755.0,
2479.0,4052.0,1926.0,2068.0,4365759.0,
2482.0,4051.0,1945.0,2070.0,4365763.0,
2481.0,4049.0,1969.0,2073.0,4365767.0,
2479.0,4051.0,1995.0,2078.0,4365771.0,
2478.0,4050.0,2021.0,2077.0,4365775.0,
2479.0,4052.0,2053.0,2081.0,4365779.0,
2480.0,4051.0,2086.0,2084.0,4365782.0,
2481.0,4050.0,2117.0,2083.0,4365786.0,
2481.0,4052.0,2149.0,2089.0,4365790.0,
2478.0,4050.0,2186.0,2088.0,4365794.0,
2479.0,4053.0,2216.0,2089.0,4365797.0,
2481.0,4053.0,2251.0,2091.0,4365801.0,
2482.0,4051.0,2283.0,2092.0,4365805.0,
2481.0,4052.0,2311.0,2093.0,4365809.0,
2479.0,4051.0,2341.0,2095.0,4365813.0,
2479.0,4051.0,2367.0,2095.0,4365817.0,
2480.0,4052.0,2392.0,2098.0,4365820.0,
2482.0,4052.0,2417.0,2097.0,4365824.0,
2481.0,4051.0,2436.0,2095.0,4365828.0,
2478.0,4052.0,2455.0,2098.0,4365832.0,
2479.0,4051.0,2472.0,2100.0,4365836.0,
2480.0,4052.0,2483.0,2100.0,4365840.0,
2482.0,4050.0,2493.0,2099.0,4365843.0,
2481.0,4051.0,2501.0,2101.0,4365847.0,
2479.0,4051.0,2505.0,2098.0,4365851.0,
2478.0,4053.0,2509.0,2100.0,4365855.0,
2480.0,4050.0,2509.0,2099.0,4365859.0,
2481.0,4053.0,2504.0,2101.0,4365862.0,
2482.0,4052.0,2501.0,2099.0,4365866.0,
2480.0,4051.0,2498.0,2099.0,4365870.0,
2477.0,4051.0,2492.0,2100.0,4365874.0,
2479.0,4050.0,2487.0,2099.0,4365878.0,
2481.0,4051.0,2480.0,2098.0,4365882.0,
2482.0,4050.0,2471.0,2096.0,4365886.0,
2481.0,4052.0,2462.0,2096.0,4365890.0,
2478.0,4049.0,2449.0,2095.0,4365894.0,
2479.0,4052.0,2436.0,2095.0,4365897.0,
2480.0,4051.0,2423.0,2093.0,4365901.0,
2481.0,4051.0,2411.0,2093.0,4365905.0,
2479.0,4052.0,2399.0,2090.0,4365909.0,
2479.0,4052.0,2389.0,2086.0,4365913.0,
2478.0,4051.0,2374.0,2085.0,4365916.0,
2480.0,4051.0,2362.0,2084.0,4365920.0,
2482.0,4050.0,2349.0,2082.0,4365924.0,
