EDA,Resp,PPG Finger,PPG Ear,arduino_ts,event_code
2470.0,4050.0,1873.0,2001.0,5553706.0,
2468.0,4052.0,1874.0,2003.0,5553709.0,
2468.0,4050.0,1876.0,2000.0,5553713.0,
2468.0,4050.0,1881.0,2003.0,5553717.0,
2471.0,4053.0,1884.0,2003.0,5553721.0,
2470.0,4051.0,1888.0,2003.0,5553725.0,
2470.0,4050.0,1892.0,2002.0,5553729.0,
2467.0,4050.0,1891.0,2003.0,5553733.0,
2469.0,4053.0,1892.0,2003.0,5553737.0,
2472.0,4052.0,1894.0,2004.0,5553741.0,
2472.0,4051.0,1896.0,2002.0,5553745.0,
2473.0,4052.0,1897.0,2004.0,5553749.0,
2468.0,4050.0,1900.0,2003.0,5553753.0,
2469.0,4052.0,1898.0,2008.0,5553756.0,
2471.0,4051.0,1901.0,2009.0,5553760.0,
2473.0,4051.0,1897.0,2011.0,5553764.0,
2471.0,4051.0,1895.0,2010.0,5553768.0,
2469.0,4052.0,1893.0,2013.0,5553772.0,
2469.0,4051.0,1890.0,2013.0,5553776.0,
2471.0,4052.0,1891.0,2017.0,5553779.0,
2473.0,4048.0,1891.0,2016.0,5553783.0,
2471.0,4050.0,1889.0,2020.0,5553787.0,
2472.0,4051.0,1886.0,2021.0,5553791.0,
2470.0,4051.0,1891.0,2023.0,5553795.0,
2471.0,4051.0,1886.0,2025.0,5553798.0,
2473.0,4050.0,1886.0,2029.0,5553802.0,
2473.0,4050.0,1884.0,2033.0,5553806.0,
2471.0,4051.0,1884.0,2036.0,5553810.0,
2469.0,4051.0,1882.0,2038.0,5553814.0,
2470.0,4052.0,1884.0,2042.0,5553818.0,
2472.0,4050.0,1884.0,2045.0,5553822.0,
2472.0,4052.0,1882.0,2049.0,5553825.0,
2469.0,4050.0,1888.0,2050.0,5553829.0,
2470.0,4051.0,1891.0,2053.0,5553833.0,
2469.0,4051.0,1897.0,2054.0,5553837.0,
2472.0,4051.0,1902.0,2060.0,5553841.0,
2472.0,4051.0,1908.0,2059.0,5553845.0,
2471.0,4052.0,1916.0,2062.0,5553848.0,
2470.0,4051.0,1922.0,2066.0,5553852.0,
2470.0,4050.0,1927.0,2066.0,5553856.0,
2472.0,4051.0,1933.0,2069.0,5553860.0,
2473.0,4051.0,1941.0,2071.0,5553864.0,
2472.0,4050.0,1952.0,2071.0,5553868.0,
2470.0,4052.0,1959.0,2075.0,5553871.0,
2469.0,4050.0,1972.0,2074.0,5553875.0,
2472.0,4051.0,1981.0,2076.0,5553879.0,
2473.0,4050.0,1994.0,2077.0,5553883.0,
2472.0,4052.0,2007.0,2079.0,5553887.0,
2469.0,4050.0,2022.0,2076.0,5553891.0,
2468.0,4052.0,2035.0,2081.0,5553895.0,
2471.0,4049.0,2048.0,2078.0,5553898.0,
2473.0,4050.0,2062.0,2081.0,5553902.0,
2473.0,4050.0,2078.0,2082.0,5553906.0,
2470.0,4051.0,2090.0,2083.0,5553910.0,
2469.0,4050.0,2104.0,2084.0,5553914.0,
2472.0,4050.0,2115.0,2087.0,5553918.0,
2472.0,4049.0,2126.0,2085.0,5553921.0,
2473.0,4051.0,2137.0,2087.0,5553925.0,
2471.0,4052.0,2146.0,2087.0,5553929.0,
2469.0,4051.0,2157.0,2089.0,5553933.0,
2469.0,4052.0,2163.0,2087.0,5553937.0,
2471.0,4053.0,2170.0,2090.0,5553940.0,
2474.0,4052.0,2178.0,2088.0,5553944.0,
2471.0,4051.0,2185.0,2086.0,5553948.0,
2470.0,4050.0,2189.0,2088.0,5553952.0,
2468.0,4051.0,2192.0,2087.0,5553956.0,
2471.0,4050.0,2197.0,2088.0,5553960.0,
2472.0,4051.0,2197.0,2087.0,5553963.0,
2471.0,4049.0,2193.0,2090.0,5553967.0,
2470.0,4052.0,2190.0,2089.0,5553971.0,
2469.0,4051.0,2184.0,2087.0,5553975.0,
2470.0,4051.0,2182.0,2087.0,5553979.0,
2472.0,4051.0,2178.0,2089.0,5553982.0,
2472.0,4050.0,2175.0,2085.0,5553986.0,
2469.0,4052.0,2175.0,2085.0,5553990.0,
2467.0,4052.0,2171.0,2084.0,5553994.0,
2471.0,4051.0,2170.0,2083.0,5553998.0,
2471.0,4053.0,2165.0,2082.0,5554002.0,
2472.0,4051.0,2159.0,2081.0,5554005.0,
2471.0,4050.0,2154.0,2075.0,5554009.0,
2469.0,4051.0,2144.0,2073.0,5554013.0,
2470.0,4052.0,2137.0,2072.0,5554017.0,
2472.0,4052.0,2126.0,2073.0,5554021.0,
2473.0,4052.0,2120.0,2068.0,5554025.0,
2472.0,4052.0,2112.0,2066.0,5554028.0,
2470.0,4050.0,2106.0,2064.0,5554032.0,
2468.0,4052.0,2101.0,2062.0,5554036.0,
2471.0,4051.0,2096.0,2060.0,5554040.0,
2472.0,4050.0,2091.0,2055.0,5554044.0,
2471.0,4049.0,2086.0,2053.0,5554048.0,
2468.0,4051.0,2079.0,2050.0,5554052.0,
2466.0,4050.0,2075.0,2049.0,5554055.0,
2470.0,4051.0,2069.0,2050.0,5554059.0,
2473.0,4051.0,2066.0,2042.0,5554063.0,
2472.0,4052.0,2062.0,2047.0,5554067.0,
2469.0,4050.0,2060.0,2042.0,5554071.0,
2468.0,4052.0,2058.0,2039.0,5554075.0,
2470.0,4050.0,2051.0,2038.0,5554078.0,
2475.0,4050.0,2048.0,2039.0,5554082.0,
2471.0,4052.0,2042.0,2038.0,5554086.0,
2470.0,4050.0,2035.0,2036.0,5554090.0,
2468.0,4052.0,2033.0,2037.0,5554094.0,
2470.0,4050.0,2026.0,2034.0,5554098.0,
2473.0,4052.0,2022.0,2036.0,5554101.0,
2473.0,4052.0,2018.0,2037.0,5554105.0,
2470.0,4049.0,2015.0,2032.0,5554109.0,
2468.0,4052.0,2013.0,2035.0,5554113.0,
2469.0,4049.0,2013.0,2032.0,5554117.0,
2469.0,4051.0,2014.0,2033.0,5554120.0,
2472.0,4051.0,2016.0,2032.0,5554124.0,
2471.0,4050.0,2014.0,2027.0,5554128.0,
2468.0,4051.0,2017.0,2028.0,5554132.0,
2469.0,4050.0,2017.0,2027.0,5554136.0,
2470.0,4052.0,2021.0,2025.0,5554140.0,
2474.0,4050.0,2026.0,2025.0,5554144.0,
2472.0,4051.0,2034.0,2023.0,5554147.0,
2469.0,4051.0,2036.0,2026.0,5554151.0,
2465.0,4051.0,2042.0,2022.0,5554155.0,
2471.0,4051.0,2044.0,2020.0,5554159.0,
2472.0,4052.0,2049.0,2022.0,5554163.0,
2471.0,4050.0,2056.0,2016.0,5554167.0,
2469.0,4052.0,2061.0,2021.0,5554170.0,
2469.0,4052.0,2063.0,2020.0,5554174.0,
2468.0,4050.0,2074.0,2019.0,5554178.0,
2472.0,4053.0,2081.0,2021.0,5554182.0,
2472.0,4051.0,2088.0,2019.0,5554185.0,
2469.0,4052.0,2093.0,2019.0,5554189.0,
2467.0,4051.0,2099.0,2019.0,5554193.0,
2468.0,4052.0,2104.0,2018.0,5554197.0,
2471.0,4050.0,2111.0,2018.0,5554201.0,
2472.0,4051.0,2115.0,2019.0,5554204.0,
2469.0,4051.0,2123.0,2021.0,5554208.0,
2469.0,4050.0,2125.0,2016.0,5554212.0,
2467.0,4051.0,2130.0,2019.0,5554216.0,
2470.0,4049.0,2138.0,2018.0,5554220.0,
2471.0,4052.0,2134.0,2019.0,5554224.0,
2470.0,4050.0,2139.0,2019.0,5554227.0,
2469.0,4052.0,2141.0,2020.0,5554231.0,
2466.0,4050.0,2139.0,2020.0,5554235.0,
2468.0,4052.0,2138.0,2023.0,5554239.0,
2470.0,4049.0,2138.0,2019.0,5554243.0,
2469.0,4053.0,2137.0,2019.0,5554246.0,
2468.0,4051.0,2139.0,2022.0,5554250.0,
2466.0,4051.0,2140.0,2019.0,5554254.0,
2468.0,4052.0,2141.0,2021.0,5554258.0,
2471.0,4050.0,2140.0,2023.0,5554262.0,
2470.0,4051.0,2143.0,2020.0,5554265.0,
2468.0,4053.0,2143.0,2021.0,5554269.0,
2467.0,4051.0,2142.0,2018.0,5554273.0,
2467.0,4051.0,2139.0,2022.0,5554277.0,
2468.0,4048.0,2136.0,2022.0,5554281.0,
2471.0,4052.0,2136.0,2026.0,5554284.0,
2469.0,4051.0,2130.0,2025.0,5554288.0,
2465.0,4052.0,2124.0,2027.0,5554292.0,
2467.0,4050.0,2120.0,2024.0,5554296.0,
2469.0,4051.0,2116.0,2025.0,5554300.0,
2470.0,4049.0,2113.0,2024.0,5554304.0,
2470.0,4051.0,2110.0,2026.0,5554307.0,
2466.0,4050.0,2107.0,2025.0,5554311.0,
2467.0,4051.0,2100.0,2026.0,5554315.0,
2470.0,4049.0,2101.0,2026.0,5554319.0,
2470.0,4052.0,2096.0,2028.0,5554323.0,
2471.0,4050.0,2093.0,2027.0,5554327.0,
2467.0,4052.0,2088.0,2030.0,5554330.0,
2466.0,4050.0,2081.0,2026.0,5554334.0,
2468.0,4050.0,2076.0,2027.0,5554338.0,
2470.0,4053.0,2075.0,2028.0,5554342.0,
2471.0,4050.0,2067.0,2027.0,5554346.0,
2469.0,4051.0,2064.0,2024.0,5554350.0,
2468.0,4050.0,2058.0,2021.0,5554354.0,
2467.0,4051.0,2053.0,2023.0,5554358.0,
2470.0,4050.0,2050.0,2020.0,5554361.0,
2469.0,4049.0,2041.0,2019.0,5554367.0,
2468.0,4052.0,2034.0,2016.0,5554371.0,
2467.0,4050.0,2027.0,2013.0,5554375.0,
2469.0,4050.0,2022.0,2008.0,5554379.0,
2471.0,4050.0,2021.0,2003.0,5554383.0,
2471.0,4050.0,2021.0,2006.0,5554387.0,
2468.0,4052.0,2013.0,2002.0,5554391.0,
2467.0,4049.0,2012.0,1998.0,5554395.0,
2468.0,4052.0,2006.0,1997.0,5554399.0,
2470.0,4051.0,2004.0,1993.0,5554402.0,
2470.0,4050.0,2001.0,1992.0,5554406.0,
2468.0,4051.0,1997.0,1988.0,5554410.0,
2467.0,4050.0,1995.0,1987.0,5554414.0,
2468.0,4051.0,1991.0,1989.0,5554418.0,
2470.0,4051.0,1990.0,1985.0,5554422.0,
2470.0,4050.0,1988.0,1983.0,5554426.0,
2467.0,4051.0,1985.0,1982.0,5554430.0,
2467.0,4053.0,1982.0,1984.0,5554433.0,
2467.0,4051.0,1981.0,1984.0,5554437.0,
2468.0,4050.0,1979.0,1982.0,5554441.0,
2471.0,4052.0,1974.0,1982.0,5554445.0,
2468.0,4050.0,1971.0,1982.0,5554449.0,
2467.0,4052.0,1970.0,1984.0,5554452.0,
2467.0,4050.0,1970.0,1983.0,5554456.0,
2468.0,4050.0,1968.0,1984.0,5554460.0,
2469.0,4051.0,1968.0,1985.0,5554464.0,
2468.0,4050.0,1970.0,1984.0,5554468.0,
2466.0,4051.0,1968.0,1985.0,5554472.0,
2465.0,4050.0,1969.0,1983.0,5554475.0,
2468.0,4050.0,1970.0,1986.0,5554479.0,
2469.0,4051.0,1971.0,1988.0,5554483.0,
2470.0,4050.0,1973.0,1988.0,5554487.0,
2467.0,4053.0,1973.0,1993.0,5554491.0,
2462.0,4052.0,1980.0,1988.0,5554495.0,
2467.0,4052.0,1984.0,1993.0,5554498.0,
2468.0,4053.0,1985.0,1994.0,5554502.0,
2466.0,4051.0,1987.0,1995.0,5554506.0,
2467.0,4050.0,1993.0,1997.0,5554510.0,
2465.0,4051.0,1991.0,1999.0,5554514.0,
2466.0,4050.0,1994.0,1998.0,5554518.0,
2469.0,4051.0,1996.0,2002.0,5554521.0,
2469.0,4051.0,1996.0,2001.0,5554525.0,
2467.0,4052.0,1990.0,2002.0,5554529.0,
2466.0,4050.0,1986.0,2004.0,5554533.0,
2464.0,4051.0,1984.0,2004.0,5554537.0,
2468.0,4051.0,1981.0,2005.0,5554542.0,
2468.0,4051.0,1977.0,2003.0,5554545.0,
2467.0,4052.0,1977.0,2003.0,5554549.0,
2465.0,4050.0,1974.0,2006.0,5554553.0,
2466.0,4052.0,1976.0,2006.0,5554557.0,
2467.0,4050.0,1976.0,2007.0,5554561.0,
2470.0,4052.0,1974.0,2007.0,5554564.0,
2468.0,4051.0,1975.0,2008.0,5554568.0,
2465.0,4050.0,1974.0,2009.0,5554572.0,
2466.0,4050.0,1973.0,2011.0,5554576.0,
2468.0,4051.0,1973.0,2014.0,5554580.0,
2470.0,4050.0,1973.0,2015.0,5554584.0,
2468.0,4051.0,1970.0,2018.0,5554588.0,
2464.0,4050.0,1968.0,2018.0,5554591.0,
2466.0,4053.0,1967.0,2020.0,5554595.0,
2472.0,4052.0,1967.0,2025.0,5554599.0,
2469.0,4051.0,1967.0,2024.0,5554603.0,
2470.0,4052.0,1969.0,2027.0,5554607.0,
2467.0,4050.0,1970.0,2028.0,5554610.0,
2466.0,4050.0,1969.0,2031.0,5554614.0,
2467.0,4050.0,1967.0,2036.0,5554618.0,
2471.0,4052.0,1967.0,2038.0,5554622.0,
2469.0,4050.0,1965.0,2040.0,5554626.0,
2468.0,4051.0,1968.0,2042.0,5554630.0,
2466.0,4049.0,1967.0,2042.0,5554633.0,
2466.0,4050.0,1969.0,2045.0,5554637.0,
2469.0,4051.0,1976.0,2046.0,5554641.0,
2471.0,4052.0,1981.0,2050.0,5554645.0,
2469.0,4050.0,1992.0,2051.0,5554649.0,
2466.0,4052.0,1998.0,2051.0,5554653.0,
2466.0,4050.0,2009.0,2050.0,5554657.0,
2468.0,4050.0,2018.0,2054.0,5554660.0,
2470.0,4051.0,2033.0,2053.0,5554664.0,
2469.0,4051.0,2043.0,2054.0,5554668.0,
2467.0,4050.0,2057.0,2055.0,5554672.0,
2465.0,4050.0,2070.0,2056.0,5554676.0,
2471.0,4050.0,2084.0,2060.0,5554679.0,
2471.0,4049.0,2096.0,2055.0,5554683.0,
2470.0,4051.0,2111.0,2057.0,5554687.0,
2468.0,4050.0,2125.0,2057.0,5554691.0,
2466.0,4052.0,2138.0,2057.0,5554695.0,
2468.0,4050.0,2152.0,2056.0,5554699.0,
2471.0,4050.0,2167.0,2055.0,5554702.0,
2471.0,4051.0,2177.0,2059.0,5554706.0,
2468.0,4051.0,2185.0,2062.0,5554710.0,
2467.0,4051.0,2192.0,2057.0,5554714.0,
2467.0,4051.0,2199.0,2059.0,5554718.0,
2470.0,4050.0,2204.0,2061.0,5554722.0,
2471.0,4050.0,2203.0,2057.0,5554725.0,
2470.0,4050.0,2207.0,2057.0,5554729.0,
2468.0,4050.0,2211.0,2056.0,5554733.0,
2468.0,4050.0,2212.0,2053.0,5554737.0,
2468.0,4051.0,2213.0,2051.0,5554741.0,
2471.0,4050.0,2213.0,2052.0,5554745.0,
2471.0,4049.0,2215.0,2051.0,5554748.0,
2469.0,4051.0,2215.0,2052.0,5554752.0,
2468.0,4051.0,2213.0,2048.0,5554756.0,
2470.0,4050.0,2213.0,2051.0,5554760.0,
2472.0,4050.0,2214.0,2050.0,5554764.0,
2470.0,4050.0,2214.0,2051.0,5554768.0,
2469.0,4051.0,2214.0,2049.0,5554772.0,
2468.0,4050.0,2213.0,2049.0,5554776.0,
2469.0,4051.0,2208.0,2053.0,5554779.0,
2472.0,4052.0,2206.0,2054.0,5554783.0,
2472.0,4052.0,2202.0,2055.0,5554787.0,
2470.0,4053.0,2198.0,2056.0,5554791.0,
2468.0,4051.0,2188.0,2058.0,5554795.0,
2469.0,4051.0,2180.0,2060.0,5554799.0,
2472.0,4050.0,2169.0,2059.0,5554802.0,
2473.0,4050.0,2158.0,2060.0,5554806.0,
2470.0,4049.0,2146.0,2059.0,5554810.0,
2468.0,4050.0,2136.0,2061.0,5554814.0,
2469.0,4050.0,2123.0,2059.0,5554818.0,
2472.0,4053.0,2109.0,2060.0,5554821.0,
2472.0,4052.0,2100.0,2063.0,5554825.0,
2471.0,4052.0,2090.0,2062.0,5554829.0,
2469.0,4051.0,2079.0,2062.0,5554833.0,
2468.0,4051.0,2069.0,2061.0,5554837.0,
2471.0,4052.0,2060.0,2063.0,5554841.0,
2472.0,4052.0,2050.0,2062.0,5554845.0,
2472.0,4051.0,2040.0,2064.0,5554848.0,
2469.0,4049.0,2031.0,2062.0,5554852.0,
2468.0,4050.0,2023.0,2061.0,5554856.0,
2470.0,4051.0,2014.0,2065.0,5554860.0,
2471.0,4051.0,2007.0,2065.0,5554864.0,
2471.0,4050.0,2001.0,2067.0,5554867.0,
2469.0,4051.0,1996.0,2064.0,5554871.0,
2468.0,4052.0,1992.0,2064.0,5554875.0,
2469.0,4051.0,1986.0,2066.0,5554879.0,
2472.0,4052.0,1984.0,2065.0,5554883.0,
2472.0,4052.0,1981.0,2065.0,5554887.0,
2468.0,4051.0,1975.0,2068.0,5554891.0,
2468.0,4049.0,1974.0,2066.0,5554895.0,
2469.0,4052.0,1968.0,2069.0,5554899.0,
2471.0,4051.0,1966.0,2070.0,5554903.0,
2472.0,4051.0,1964.0,2070.0,5554907.0,
2469.0,4049.0,1966.0,2071.0,5554910.0,
2468.0,4050.0,1962.0,2068.0,5554914.0,
2468.0,4050.0,1962.0,2069.0,5554918.0,
2471.0,4051.0,1962.0,2070.0,5554922.0,
2470.0,4050.0,1961.0,2068.0,5554926.0,
2469.0,4052.0,1957.0,2070.0,5554930.0,
2467.0,4049.0,1961.0,2069.0,5554934.0,
2468.0,4052.0,1962.0,2070.0,5554937.0,
2470.0,4051.0,1962.0,2068.0,5554941.0,
2470.0,4052.0,1966.0,2070.0,5554945.0,
2468.0,4049.0,1966.0,2067.0,5554949.0,
2466.0,4052.0,1964.0,2068.0,5554953.0,
2467.0,4048.0,1960.0,2066.0,5554956.0,
2468.0,4051.0,1959.0,2063.0,5554960.0,
2470.0,4049.0,1957.0,2061.0,5554964.0,
2469.0,4051.0,1952.0,2062.0,5554968.0,
2466.0,4051.0,1953.0,2056.0,5554972.0,
2466.0,4051.0,1950.0,2055.0,5554975.0,
2467.0,4051.0,1957.0,2051.0,5554979.0,
2470.0,4050.0,1954.0,2049.0,5554983.0,
2469.0,4052.0,1956.0,2045.0,5554987.0,
2466.0,4052.0,1961.0,2041.0,5554991.0,
2464.0,4051.0,1959.0,2036.0,5554996.0,
2467.0,4051.0,1961.0,2032.0,5555000.0,
2468.0,4051.0,1962.0,2029.0,5555004.0,
2467.0,4051.0,1965.0,2027.0,5555008.0,
2466.0,4050.0,1966.0,2026.0,5555012.0,
2464.0,4051.0,1968.0,2022.0,5555016.0,
2466.0,4050.0,1973.0,2018.0,5555020.0,
2469.0,4051.0,1976.0,2015.0,5555023.0,
2467.0,4051.0,1978.0,2014.0,5555027.0,
2465.0,4051.0,1982.0,2011.0,5555031.0,
2464.0,4052.0,1985.0,2013.0,5555035.0,
2465.0,4051.0,1988.0,2010.0,5555039.0,
2467.0,4052.0,1989.0,2009.0,5555043.0,
2468.0,4050.0,1988.0,2006.0,5555046.0,
2464.0,4052.0,1987.0,2008.0,5555050.0,
2463.0,4052.0,1987.0,2008.0,5555054.0,
2464.0,4053.0,1983.0,2005.0,5555058.0,
2466.0,4052.0,1980.0,2003.0,5555062.0,
2467.0,4052.0,1983.0,2005.0,5555066.0,
2465.0,4050.0,1978.0,2003.0,5555070.0,
2463.0,4052.0,1977.0,2002.0,5555074.0,
2464.0,4050.0,1972.0,1999.0,5555078.0,
2467.0,4051.0,1973.0,2002.0,5555082.0,
2467.0,4050.0,1970.0,2001.0,5555086.0,
2466.0,4051.0,1969.0,1998.0,5555090.0,
2465.0,4051.0,1967.0,1997.0,5555093.0,
2465.0,4051.0,1966.0,1995.0,5555097.0,
2467.0,4051.0,1963.0,1998.0,5555101.0,
2469.0,4050.0,1960.0,1996.0,5555105.0,
2467.0,4051.0,1957.0,1997.0,5555109.0,
2465.0,4050.0,1952.0,1993.0,5555113.0,
2464.0,4052.0,1952.0,1996.0,5555117.0,
2466.0,4050.0,1950.0,1995.0,5555120.0,
2468.0,4050.0,1945.0,1996.0,5555124.0,
2467.0,4050.0,1941.0,1998.0,5555128.0,
2466.0,4052.0,1933.0,2003.0,5555132.0,
2464.0,4051.0,1928.0,2006.0,5555136.0,
2467.0,4050.0,1921.0,2010.0,5555139.0,
2468.0,4052.0,1915.0,2017.0,5555143.0,
2469.0,4051.0,1911.0,2016.0,5555147.0,
2466.0,4052.0,1908.0,2016.0,5555151.0,
2465.0,4051.0,1903.0,2017.0,5555155.0,
2467.0,4052.0,1899.0,2021.0,5555158.0,
2468.0,4050.0,1896.0,2021.0,5555162.0,
2469.0,4050.0,1891.0,2022.0,5555166.0,
2468.0,4050.0,1889.0,2024.0,5555170.0,
2466.0,4049.0,1885.0,2023.0,5555174.0,
2466.0,4052.0,1883.0,2022.0,5555178.0,
2470.0,4051.0,1882.0,2021.0,5555182.0,
2470.0,4051.0,1876.0,2020.0,5555185.0,
2467.0,4051.0,1877.0,2016.0,5555189.0,
2465.0,4050.0,1875.0,2013.0,5555193.0,
2466.0,4052.0,1873.0,2010.0,5555197.0,
2467.0,4051.0,1872.0,2005.0,5555201.0,
2469.0,4052.0,1870.0,1998.0,5555205.0,
2468.0,4050.0,1869.0,1994.0,5555208.0,
2465.0,4050.0,1868.0,1990.0,5555212.0,
2466.0,4052.0,1864.0,1981.0,5555216.0,
2467.0,4050.0,1869.0,1975.0,5555220.0,
2470.0,4051.0,1864.0,1971.0,5555224.0,
2469.0,4051.0,1869.0,1962.0,5555228.0,
2466.0,4052.0,1873.0,1958.0,5555231.0,
2465.0,4051.0,1874.0,1950.0,5555235.0,
2466.0,4052.0,1878.0,1946.0,5555239.0,
2469.0,4050.0,1879.0,1941.0,5555243.0,
2470.0,4050.0,1878.0,1937.0,5555247.0,
2466.0,4051.0,1884.0,1935.0,5555250.0,
2465.0,4052.0,1884.0,1933.0,5555254.0,
2466.0,4052.0,1886.0,1929.0,5555258.0,
2468.0,4049.0,1884.0,1927.0,5555262.0,
2470.0,4051.0,1880.0,1927.0,5555266.0,
2469.0,4051.0,1881.0,1924.0,5555269.0,
2466.0,4052.0,1876.0,1925.0,5555273.0,
2466.0,4048.0,1874.0,1922.0,5555277.0,
2468.0,4050.0,1871.0,1928.0,5555281.0,
2469.0,4051.0,1868.0,1928.0,5555285.0,
2468.0,4051.0,1865.0,1932.0,5555288.0,
2464.0,4052.0,1863.0,1932.0,5555292.0,
2465.0,4051.0,1859.0,1930.0,5555296.0,
2469.0,4051.0,1860.0,1935.0,5555300.0,
2470.0,4051.0,1856.0,1936.0,5555304.0,
2469.0,4081.0,1855.0,1943.0,5555307.0,
2463.0,4051.0,1853.0,1944.0,5555311.0,
2466.0,4052.0,1848.0,1949.0,5555315.0,
2467.0,4049.0,1852.0,1952.0,5555319.0,
2471.0,4052.0,1851.0,1960.0,5555323.0,
2470.0,4051.0,1851.0,1963.0,5555327.0,
2469.0,4052.0,1855.0,1969.0,5555330.0,
2466.0,4050.0,1851.0,1975.0,5555334.0,
2466.0,4050.0,1852.0,1980.0,5555338.0,
2468.0,4051.0,1850.0,1989.0,5555342.0,
2469.0,4050.0,1853.0,1995.0,5555346.0,
2468.0,4052.0,1852.0,2003.0,5555350.0,
2466.0,4050.0,1850.0,2006.0,5555353.0,
2466.0,4051.0,1850.0,2015.0,5555357.0,
2468.0,4050.0,1854.0,2022.0,5555361.0,
2470.0,4051.0,1858.0,2029.0,5555365.0,
2469.0,4050.0,1861.0,2034.0,5555369.0,
2466.0,4053.0,1865.0,2043.0,5555372.0,
2467.0,4052.0,1867.0,2053.0,5555380.0,
2469.0,4050.0,1873.0,2057.0,5555384.0,
2469.0,4052.0,1879.0,2062.0,5555388.0,
2466.0,4050.0,1883.0,2068.0,5555391.0,
2466.0,4052.0,1887.0,2073.0,5555395.0,
2467.0,4050.0,1894.0,2075.0,5555399.0,
2470.0,4052.0,1896.0,2080.0,5555403.0,
2470.0,4050.0,1908.0,2081.0,5555407.0,
2468.0,4052.0,1914.0,2084.0,5555410.0,
2465.0,4049.0,1919.0,2083.0,5555414.0,
2466.0,4050.0,1933.0,2087.0,5555418.0,
2469.0,4050.0,1941.0,2089.0,5555422.0,
2470.0,4052.0,1952.0,2090.0,5555426.0,
2468.0,4051.0,1968.0,2091.0,5555430.0,
2466.0,4052.0,1985.0,2092.0,5555433.0,
2467.0,4052.0,1999.0,2094.0,5555437.0,
2468.0,4052.0,2016.0,2092.0,5555441.0,
2471.0,4050.0,2035.0,2094.0,5555445.0,
2470.0,4052.0,2052.0,2095.0,5555449.0,
2466.0,4051.0,2067.0,2092.0,5555453.0,
2467.0,4050.0,2090.0,2089.0,5555457.0,
2469.0,4052.0,2107.0,2089.0,5555461.0,
2470.0,4052.0,2121.0,2091.0,5555465.0,
2470.0,4051.0,2139.0,2089.0,5555469.0,
2469.0,4052.0,2152.0,2084.0,5555473.0,
2467.0,4051.0,2162.0,2086.0,5555477.0,
2470.0,4053.0,2168.0,2083.0,5555481.0,
2470.0,4050.0,2178.0,2080.0,5555485.0,
2469.0,4050.0,2179.0,2079.0,5555489.0,
2467.0,4049.0,2178.0,2076.0,5555493.0,
2468.0,4049.0,2182.0,2073.0,5555496.0,
2469.0,4050.0,2179.0,2073.0,5555500.0,
2471.0,4050.0,2176.0,2071.0,5555504.0,
2470.0,4051.0,2173.0,2070.0,5555508.0,
2468.0,4052.0,2172.0,2069.0,5555512.0,
2467.0,4050.0,2167.0,2068.0,5555516.0,
2471.0,4052.0,2165.0,2066.0,5555519.0,
2471.0,4051.0,2160.0,2065.0,5555523.0,
2471.0,4050.0,2155.0,2064.0,5555527.0,
2469.0,4051.0,2152.0,2061.0,5555531.0,
2467.0,4051.0,2150.0,2063.0,5555535.0,
2468.0,4049.0,2146.0,2069.0,5555538.0,
2471.0,4052.0,2134.0,2066.0,5555542.0,
2472.0,4053.0,2130.0,2066.0,5555546.0,
2470.0,4050.0,2123.0,2064.0,5555550.0,
2467.0,4050.0,2118.0,2065.0,5555554.0,
2467.0,4050.0,2110.0,2064.0,5555558.0,
2471.0,4052.0,2106.0,2063.0,5555561.0,
2472.0,4052.0,2104.0,2064.0,5555565.0,
2471.0,4051.0,2098.0,2064.0,5555569.0,
2468.0,4050.0,2096.0,2062.0,5555573.0,
2469.0,4050.0,2093.0,2060.0,5555577.0,
2470.0,4050.0,2086.0,2059.0,5555581.0,
2471.0,4050.0,2079.0,2058.0,5555585.0,
2470.0,4052.0,2076.0,2058.0,5555588.0,
2468.0,4050.0,2068.0,2061.0,5555592.0,
2467.0,4052.0,2064.0,2060.0,5555596.0,
2470.0,4051.0,2061.0,2061.0,5555600.0,
2473.0,4051.0,2053.0,2059.0,5555604.0,
2472.0,4052.0,2053.0,2059.0,5555608.0,
2465.0,4082.0,2047.0,2060.0,5555611.0,
2468.0,4052.0,2044.0,2059.0,5555615.0,
2470.0,4050.0,2038.0,2060.0,5555619.0,
2473.0,4051.0,2035.0,2059.0,5555623.0,
2473.0,4052.0,2028.0,2059.0,5555627.0,
2469.0,4050.0,2026.0,2059.0,5555631.0,
2469.0,4053.0,2018.0,2060.0,5555635.0,
2467.0,4050.0,2015.0,2059.0,5555638.0,
2472.0,4049.0,2009.0,2060.0,5555642.0,
2474.0,4051.0,2006.0,2060.0,5555646.0,
2472.0,4051.0,2000.0,2058.0,5555650.0,
2470.0,4053.0,1995.0,2061.0,5555654.0,
2469.0,4050.0,1993.0,2060.0,5555657.0,
2471.0,4050.0,1987.0,2059.0,5555661.0,
2474.0,4050.0,1981.0,2059.0,5555665.0,
2473.0,4052.0,1977.0,2060.0,5555669.0,
2469.0,4053.0,1970.0,2059.0,5555673.0,
2470.0,4051.0,1963.0,2061.0,5555677.0,
2472.0,4050.0,1961.0,2058.0,5555680.0,
2474.0,4049.0,1958.0,2058.0,5555684.0,
2473.0,4052.0,1951.0,2059.0,5555688.0,
2471.0,4050.0,1947.0,2061.0,5555692.0,
2470.0,4051.0,1947.0,2058.0,5555696.0,
2472.0,4050.0,1946.0,2061.0,5555700.0,
2474.0,4052.0,1949.0,2064.0,5555703.0,
2474.0,4051.0,1950.0,2064.0,5555707.0,
2471.0,4052.0,1956.0,2066.0,5555711.0,
2469.0,4051.0,1959.0,2060.0,5555715.0,
2470.0,4053.0,1963.0,2062.0,5555719.0,
2475.0,4050.0,1968.0,2062.0,5555723.0,
2474.0,4052.0,1971.0,2063.0,5555726.0,
2473.0,4052.0,1977.0,2062.0,5555730.0,
2470.0,4051.0,1981.0,2064.0,5555734.0,
2471.0,4051.0,1983.0,2059.0,5555738.0,
2473.0,4051.0,1988.0,2062.0,5555742.0,
2475.0,4050.0,1990.0,2061.0,5555745.0,
2473.0,4052.0,1994.0,2061.0,5555749.0,
2471.0,4053.0,1994.0,2058.0,5555753.0,
2470.0,4051.0,2001.0,2060.0,5555757.0,
2473.0,4050.0,2004.0,2057.0,5555761.0,
2475.0,4051.0,2005.0,2058.0,5555765.0,
2474.0,4051.0,2008.0,2055.0,5555768.0,
2472.0,4051.0,2010.0,2056.0,5555772.0,
2471.0,4051.0,2009.0,2056.0,5555776.0,
2472.0,4050.0,2011.0,2055.0,5555780.0,
2474.0,4052.0,2011.0,2058.0,5555784.0,
2475.0,4050.0,2010.0,2057.0,5555787.0,
2472.0,4051.0,2004.0,2055.0,5555791.0,
2470.0,4050.0,2001.0,2054.0,5555795.0,
2471.0,4052.0,1998.0,2056.0,5555799.0,
2475.0,4050.0,1999.0,2055.0,5555803.0,
2474.0,4051.0,1997.0,2056.0,5555807.0,
2472.0,4052.0,1998.0,2055.0,5555811.0,
2470.0,4051.0,1993.0,2054.0,5555814.0,
2471.0,4049.0,1996.0,2055.0,5555818.0,
2472.0,4053.0,1997.0,2054.0,5555822.0,
2474.0,4051.0,1993.0,2052.0,5555826.0,
2473.0,4052.0,1990.0,2055.0,5555830.0,
2471.0,4049.0,1988.0,2049.0,5555834.0,
2470.0,4051.0,1986.0,2051.0,5555837.0,
2472.0,4050.0,1983.0,2050.0,5555841.0,
2473.0,4052.0,1979.0,2051.0,5555845.0,
2473.0,4051.0,1977.0,2051.0,5555849.0,
2471.0,4050.0,1977.0,2049.0,5555853.0,
2470.0,4050.0,1978.0,2048.0,5555857.0,
2472.0,4050.0,1978.0,2051.0,5555861.0,
2473.0,4051.0,1975.0,2049.0,5555864.0,
2473.0,4050.0,1972.0,2047.0,5555868.0,
2471.0,4050.0,1968.0,2051.0,5555872.0,
2469.0,4050.0,1964.0,2051.0,5555876.0,
2471.0,4050.0,1964.0,2046.0,5555880.0,
2473.0,4054.0,1955.0,2048.0,5555884.0,
2473.0,4053.0,1961.0,2051.0,5555888.0,
2470.0,4054.0,1960.0,2057.0,5555892.0,
2470.0,4053.0,1957.0,2056.0,5555896.0,
2471.0,4055.0,1949.0,2060.0,5555900.0,
2473.0,4054.0,1945.0,2062.0,5555904.0,
2473.0,4056.0,1943.0,2065.0,5555908.0,
2470.0,4054.0,1936.0,2064.0,5555911.0,
2471.0,4055.0,1932.0,2065.0,5555915.0,
2470.0,4054.0,1928.0,2066.0,5555919.0,
2473.0,4053.0,1923.0,2064.0,5555923.0,
2472.0,4055.0,1912.0,2066.0,5555927.0,
2469.0,4053.0,1905.0,2066.0,5555931.0,
2469.0,4056.0,1894.0,2066.0,5555935.0,
2469.0,4053.0,1885.0,2062.0,5555938.0,
2472.0,4054.0,1880.0,2064.0,5555942.0,
2472.0,4056.0,1872.0,2061.0,5555946.0,
2470.0,4054.0,1863.0,2064.0,5555950.0,
2469.0,4053.0,1857.0,2058.0,5555954.0,
2469.0,4055.0,1852.0,2057.0,5555957.0,
2472.0,4056.0,1845.0,2055.0,5555961.0,
2473.0,4056.0,1844.0,2054.0,5555965.0,
2471.0,4054.0,1837.0,2048.0,5555969.0,
2468.0,4055.0,1834.0,2048.0,5555973.0,
2467.0,4053.0,1835.0,2046.0,5555977.0,
2469.0,4054.0,1838.0,2046.0,5555981.0,
2471.0,4053.0,1838.0,2042.0,5555985.0,
2470.0,4054.0,1841.0,2041.0,5555989.0,
2468.0,4052.0,1846.0,2037.0,5555992.0,
2471.0,4055.0,1847.0,2038.0,5555996.0,
2468.0,4056.0,1848.0,2034.0,5556000.0,
2470.0,4052.0,1849.0,2033.0,5556004.0,
2470.0,4054.0,1853.0,2030.0,5556008.0,
2468.0,4052.0,1854.0,2030.0,5556012.0,
2467.0,4054.0,1854.0,2026.0,5556015.0,
2467.0,4054.0,1856.0,2027.0,5556019.0,
2469.0,4055.0,1854.0,2026.0,5556023.0,
2470.0,4053.0,1858.0,2025.0,5556027.0,
2468.0,4056.0,1859.0,2026.0,5556031.0,
2466.0,4053.0,1860.0,2023.0,5556035.0,
2466.0,4055.0,1859.0,2024.0,5556039.0,
2470.0,4053.0,1861.0,2024.0,5556042.0,
2470.0,4054.0,1865.0,2028.0,5556046.0,
2468.0,4052.0,1867.0,2026.0,5556050.0,
2466.0,4054.0,1871.0,2027.0,5556054.0,
2467.0,4054.0,1876.0,2027.0,5556058.0,
2471.0,4055.0,1878.0,2032.0,5556061.0,
2470.0,4054.0,1883.0,2030.0,5556065.0,
2470.0,4053.0,1886.0,2033.0,5556069.0,
2468.0,4054.0,1890.0,2035.0,5556073.0,
2466.0,4052.0,1893.0,2037.0,5556077.0,
2468.0,4055.0,1894.0,2040.0,5556081.0,
2471.0,4053.0,1896.0,2042.0,5556085.0,
2469.0,4054.0,1898.0,2043.0,5556088.0,
2467.0,4054.0,1902.0,2046.0,5556092.0,
2468.0,4053.0,1905.0,2045.0,5556096.0,
2469.0,4055.0,1908.0,2050.0,5556100.0,
2470.0,4052.0,1913.0,2052.0,5556104.0,
2472.0,4054.0,1917.0,2055.0,5556107.0,
2469.0,4052.0,1924.0,2056.0,5556111.0,
2466.0,4054.0,1925.0,2058.0,5556115.0,
2468.0,4052.0,1932.0,2060.0,5556119.0,
2470.0,4054.0,1937.0,2062.0,5556123.0,
2471.0,4052.0,1945.0,2064.0,5556127.0,
2470.0,4054.0,1950.0,2068.0,5556130.0,
2468.0,4054.0,1960.0,2068.0,5556134.0,
2468.0,4054.0,1970.0,2070.0,5556138.0,
2470.0,4053.0,1980.0,2070.0,5556142.0,
2471.0,4053.0,1988.0,2074.0,5556146.0,
2470.0,4053.0,1998.0,2075.0,5556149.0,
2468.0,4052.0,2011.0,2073.0,5556153.0,
2468.0,4055.0,2017.0,2079.0,5556157.0,
2469.0,4053.0,2030.0,2078.0,5556161.0,
2472.0,4055.0,2040.0,2080.0,5556165.0,
2470.0,4053.0,2051.0,2078.0,5556169.0,
2469.0,4052.0,2064.0,2078.0,5556172.0,
2468.0,4055.0,2070.0,2079.0,5556176.0,
2468.0,4053.0,2084.0,2077.0,5556180.0,
2470.0,4053.0,2097.0,2077.0,5556184.0,
2471.0,4053.0,2108.0,2077.0,5556188.0,
2470.0,4053.0,2119.0,2072.0,5556192.0,
2467.0,4053.0,2128.0,2077.0,5556195.0,
2469.0,4054.0,2139.0,2074.0,5556199.0,
2471.0,4053.0,2147.0,2073.0,5556203.0,
2472.0,4053.0,2155.0,2073.0,5556207.0,
2469.0,4053.0,2167.0,2072.0,5556211.0,
2468.0,4052.0,2174.0,2070.0,5556214.0,
2469.0,4052.0,2178.0,2073.0,5556218.0,
2471.0,4054.0,2183.0,2070.0,5556222.0,
2472.0,4052.0,2186.0,2069.0,5556226.0,
2470.0,4053.0,2186.0,2069.0,5556230.0,
2470.0,4053.0,2189.0,2068.0,5556233.0,
2469.0,4053.0,2191.0,2069.0,5556237.0,
2470.0,4055.0,2195.0,2068.0,5556241.0,
2472.0,4054.0,2196.0,2066.0,5556245.0,
2472.0,4053.0,2201.0,2064.0,5556249.0,
2470.0,4052.0,2202.0,2063.0,5556253.0,
2468.0,4052.0,2204.0,2061.0,5556256.0,
2468.0,4053.0,2202.0,2063.0,5556260.0,
2473.0,4055.0,2202.0,2060.0,5556264.0,
2471.0,4055.0,2203.0,2060.0,5556268.0,
2469.0,4054.0,2200.0,2057.0,5556272.0,
2467.0,4054.0,2199.0,2057.0,5556275.0,
2469.0,4053.0,2195.0,2052.0,5556279.0,
2472.0,4055.0,2192.0,2055.0,5556283.0,
2472.0,4055.0,2188.0,2052.0,5556287.0,
2470.0,4055.0,2187.0,2053.0,5556291.0,
2468.0,4054.0,2184.0,2051.0,5556294.0,
2468.0,4054.0,2184.0,2049.0,5556298.0,
2470.0,4054.0,2179.0,2045.0,5556302.0,
2472.0,4055.0,2181.0,2045.0,5556306.0,
2470.0,4054.0,2180.0,2042.0,5556310.0,
2468.0,4053.0,2178.0,2040.0,5556313.0,
2468.0,4053.0,2175.0,2040.0,5556317.0,
2469.0,4054.0,2175.0,2040.0,5556321.0,
2471.0,4053.0,2171.0,2037.0,5556325.0,
2471.0,4054.0,2165.0,2038.0,5556329.0,
2469.0,4053.0,2160.0,2035.0,5556333.0,
2468.0,4055.0,2152.0,2036.0,5556336.0,
2470.0,4054.0,2145.0,2034.0,5556340.0,
2472.0,4055.0,2138.0,2031.0,5556344.0,
2471.0,4055.0,2124.0,2031.0,5556348.0,
2469.0,4054.0,2115.0,2031.0,5556352.0,
2468.0,4053.0,2104.0,2029.0,5556355.0,
2468.0,4054.0,2092.0,2026.0,5556359.0,
2472.0,4054.0,2081.0,2028.0,5556363.0,
2472.0,4053.0,2071.0,2025.0,5556367.0,
2471.0,4054.0,2062.0,2026.0,5556371.0,
2469.0,4053.0,2050.0,2027.0,5556375.0,
2469.0,4055.0,2039.0,2025.0,5556378.0,
2470.0,4050.0,2034.0,2024.0,5556382.0,
2472.0,4053.0,2025.0,2022.0,5556386.0,
2470.0,4054.0,2015.0,2023.0,5556391.0,
2469.0,4053.0,2004.0,2023.0,5556395.0,
2469.0,4054.0,1996.0,2024.0,5556398.0,
2471.0,4054.0,1988.0,2023.0,5556402.0,
2473.0,4053.0,1985.0,2023.0,5556406.0,
2471.0,4054.0,1976.0,2024.0,5556410.0,
2468.0,4052.0,1973.0,2024.0,5556414.0,
2471.0,4055.0,1971.0,2027.0,5556418.0,
2471.0,4054.0,1974.0,2029.0,5556421.0,
2472.0,4055.0,1972.0,2031.0,5556425.0,
2472.0,4054.0,1974.0,2029.0,5556429.0,
2469.0,4053.0,1981.0,2031.0,5556433.0,
2468.0,4054.0,1985.0,2036.0,5556437.0,
2470.0,4054.0,1993.0,2034.0,5556441.0,
2472.0,4052.0,2001.0,2039.0,5556445.0,
2471.0,4053.0,2015.0,2037.0,5556448.0,
2470.0,4055.0,2029.0,2041.0,5556452.0,
2468.0,4055.0,2046.0,2043.0,5556456.0,
2469.0,4053.0,2062.0,2042.0,5556460.0,
2472.0,4054.0,2076.0,2044.0,5556464.0,
2471.0,4052.0,2092.0,2043.0,5556468.0,
2469.0,4054.0,2108.0,2050.0,5556471.0,
2468.0,4055.0,2122.0,2046.0,5556475.0,
2468.0,4052.0,2141.0,2047.0,5556479.0,
2471.0,4055.0,2156.0,2048.0,5556483.0,
2472.0,4054.0,2170.0,2045.0,5556487.0,
2470.0,4053.0,2183.0,2043.0,5556491.0,
2467.0,4054.0,2198.0,2048.0,5556494.0,
2468.0,4053.0,2211.0,2045.0,5556498.0,
2470.0,4054.0,2221.0,2046.0,5556502.0,
2472.0,4053.0,2228.0,2043.0,5556506.0,
2470.0,4055.0,2235.0,2045.0,5556510.0,
2467.0,4052.0,2241.0,2041.0,5556514.0,
2467.0,4055.0,2253.0,2044.0,5556518.0,
2470.0,4053.0,2255.0,2041.0,5556521.0,
2471.0,4053.0,2261.0,2040.0,5556525.0,
2470.0,4054.0,2263.0,2042.0,5556529.0,
2468.0,4055.0,2269.0,2042.0,5556533.0,
2467.0,4054.0,2269.0,2039.0,5556537.0,
2468.0,4053.0,2272.0,2035.0,5556540.0,
2470.0,4054.0,2271.0,2038.0,5556544.0,
2471.0,4054.0,2270.0,2033.0,5556548.0,
2468.0,4054.0,2269.0,2032.0,5556552.0,
2466.0,4055.0,2267.0,2030.0,5556556.0,
2468.0,4053.0,2265.0,2029.0,5556559.0,
2471.0,4052.0,2265.0,2029.0,5556563.0,
2470.0,4050.0,2264.0,2026.0,5556567.0,
2468.0,4051.0,2260.0,2018.0,5556571.0,
2467.0,4052.0,2260.0,2013.0,5556575.0,
2467.0,4050.0,2259.0,2009.0,5556579.0,
2470.0,4053.0,2253.0,2005.0,5556582.0,
2470.0,4050.0,2257.0,2000.0,5556586.0,
2469.0,4050.0,2255.0,1999.0,5556590.0,
2466.0,4052.0,2253.0,1996.0,5556594.0,
2466.0,4050.0,2251.0,1995.0,5556598.0,
2469.0,4051.0,2242.0,1995.0,5556601.0,
2471.0,4051.0,2244.0,1993.0,5556605.0,
2470.0,4050.0,2244.0,1991.0,5556609.0,
2468.0,4052.0,2242.0,1992.0,5556613.0,
2466.0,4050.0,2240.0,1991.0,5556617.0,
2468.0,4050.0,2239.0,1996.0,5556620.0,
2469.0,4051.0,2235.0,1993.0,5556624.0,
2471.0,4049.0,2233.0,1995.0,5556628.0,
2469.0,4051.0,2229.0,1996.0,5556632.0,
2467.0,4050.0,2226.0,1995.0,5556636.0,
2474.0,4050.0,2216.0,1997.0,5556640.0,
2469.0,4049.0,2209.0,2000.0,5556643.0,
2471.0,4052.0,2202.0,1999.0,5556647.0,
2469.0,4051.0,2194.0,2002.0,5556651.0,
2467.0,4049.0,2186.0,2000.0,5556655.0,
2467.0,4052.0,2173.0,2005.0,5556660.0,
2469.0,4051.0,2164.0,2006.0,5556664.0,
2470.0,4052.0,2157.0,2008.0,5556667.0,
2470.0,4051.0,2147.0,2009.0,5556671.0,
2466.0,4051.0,2139.0,2010.0,5556675.0,
2467.0,4052.0,2133.0,2013.0,5556679.0,
2470.0,4049.0,2125.0,2012.0,5556683.0,
2472.0,4051.0,2121.0,2015.0,5556687.0,
2469.0,4049.0,2114.0,2013.0,5556690.0,
2466.0,4050.0,2105.0,2017.0,5556694.0,
2467.0,4051.0,2095.0,2016.0,5556698.0,
2469.0,4051.0,2085.0,2018.0,5556702.0,
2471.0,4051.0,2077.0,2021.0,5556706.0,
2469.0,4049.0,2065.0,2020.0,5556710.0,
2468.0,4053.0,2060.0,2023.0,5556713.0,
2466.0,4051.0,2050.0,2022.0,5556717.0,
2470.0,4051.0,2043.0,2026.0,5556721.0,
2472.0,4050.0,2037.0,2024.0,5556725.0,
2471.0,4052.0,2028.0,2030.0,5556729.0,
2468.0,4050.0,2022.0,2030.0,5556732.0,
2466.0,4050.0,2014.0,2034.0,5556736.0,
2469.0,4050.0,2010.0,2037.0,5556740.0,
2470.0,4051.0,2002.0,2046.0,5556744.0,
2470.0,4050.0,1996.0,2046.0,5556748.0,
2468.0,4051.0,1991.0,2050.0,5556752.0,
2466.0,4051.0,1985.0,2052.0,5556755.0,
2467.0,4050.0,1988.0,2057.0,5556759.0,
2470.0,4052.0,1981.0,2062.0,5556763.0,
2471.0,4051.0,1983.0,2063.0,5556767.0,
2469.0,4052.0,1981.0,2068.0,5556771.0,
2466.0,4049.0,1986.0,2071.0,5556775.0,
2467.0,4051.0,1988.0,2080.0,5556778.0,
2470.0,4051.0,1992.0,2081.0,5556782.0,
2471.0,4051.0,1996.0,2086.0,5556786.0,
2470.0,4051.0,2006.0,2088.0,5556790.0,
2468.0,4052.0,2011.0,2091.0,5556794.0,
2468.0,4049.0,2020.0,2092.0,5556798.0,
2470.0,4052.0,2029.0,2096.0,5556801.0,
2471.0,4052.0,2037.0,2099.0,5556805.0,
2471.0,4050.0,2049.0,2099.0,5556809.0,
2469.0,4049.0,2059.0,2102.0,5556813.0,
2468.0,4050.0,2073.0,2105.0,5556817.0,
2469.0,4050.0,2091.0,2104.0,5556821.0,
2471.0,4049.0,2102.0,2106.0,5556824.0,
2471.0,4050.0,2119.0,2108.0,5556828.0,
2469.0,4051.0,2135.0,2112.0,5556832.0,
2467.0,4049.0,2152.0,2109.0,5556836.0,
2467.0,4051.0,2167.0,2112.0,5556840.0,
2470.0,4050.0,2178.0,2114.0,5556844.0,
2470.0,4049.0,2193.0,2111.0,5556847.0,
2470.0,4052.0,2207.0,2113.0,5556851.0,
2468.0,4052.0,2222.0,2113.0,5556855.0,
2466.0,4051.0,2236.0,2112.0,5556859.0,
2470.0,4052.0,2248.0,2111.0,5556863.0,
2471.0,4051.0,2260.0,2110.0,5556867.0,
2470.0,4051.0,2270.0,2109.0,5556870.0,
2467.0,4051.0,2282.0,2106.0,5556874.0,
2468.0,4052.0,2292.0,2107.0,5556878.0,
2468.0,4052.0,2303.0,2104.0,5556882.0,
2470.0,4049.0,2314.0,2101.0,5556886.0,
2470.0,4051.0,2327.0,2103.0,5556890.0,
2468.0,4051.0,2338.0,2099.0,5556893.0,
2467.0,4051.0,2348.0,2100.0,5556897.0,
2469.0,4051.0,2358.0,2098.0,5556901.0,
2470.0,4051.0,2367.0,2096.0,5556905.0,
2470.0,4050.0,2371.0,2097.0,5556909.0,
2467.0,4050.0,2378.0,2094.0,5556912.0,
2467.0,4049.0,2382.0,2091.0,5556916.0,
2466.0,4051.0,2386.0,2090.0,5556920.0,
2469.0,4051.0,2388.0,2087.0,5556924.0,
2467.0,4049.0,2385.0,2084.0,5556928.0,
2469.0,4050.0,2382.0,2081.0,5556932.0,
2467.0,4049.0,2382.0,2080.0,5556935.0,
2467.0,4052.0,2376.0,2079.0,5556939.0,
2470.0,4052.0,2371.0,2076.0,5556943.0,
2470.0,4052.0,2368.0,2074.0,5556947.0,
2469.0,4051.0,2360.0,2071.0,5556951.0,
2466.0,4052.0,2358.0,2068.0,5556954.0,
2467.0,4052.0,2352.0,2068.0,5556958.0,
2469.0,4050.0,2349.0,2066.0,5556962.0,
2473.0,4052.0,2341.0,2064.0,5556966.0,
2470.0,4050.0,2339.0,2062.0,5556971.0,
2467.0,4051.0,2332.0,2054.0,5556975.0,
2466.0,4050.0,2330.0,2060.0,5556979.0,
2468.0,4050.0,2328.0,2059.0,5556983.0,
2470.0,4050.0,2325.0,2058.0,5556987.0,
2469.0,4050.0,2323.0,2058.0,5556991.0,
2465.0,4051.0,2318.0,2056.0,5556995.0,
2468.0,4051.0,2316.0,2053.0,5556999.0,
2470.0,4050.0,2309.0,2053.0,5557003.0,
2471.0,4051.0,2303.0,2050.0,5557007.0,
2469.0,4051.0,2297.0,2051.0,5557011.0,
2467.0,4051.0,2291.0,2045.0,5557015.0,
2466.0,4051.0,2282.0,2050.0,5557018.0,
2469.0,4052.0,2274.0,2044.0,5557022.0,
2470.0,4053.0,2266.0,2045.0,5557026.0,
2469.0,4049.0,2257.0,2045.0,5557030.0,
2467.0,4054.0,2246.0,2049.0,5557034.0,
2466.0,4054.0,2237.0,2053.0,5557038.0,
2468.0,4055.0,2228.0,2056.0,5557041.0,
2470.0,4056.0,2214.0,2058.0,5557045.0,
2470.0,4054.0,2199.0,2061.0,5557049.0,
2467.0,4053.0,2182.0,2065.0,5557053.0,
2466.0,4054.0,2163.0,2066.0,5557057.0,
2468.0,4054.0,2147.0,2069.0,5557061.0,
2471.0,4054.0,2125.0,2072.0,5557064.0,
2471.0,4054.0,2105.0,2071.0,5557068.0,
2468.0,4053.0,2085.0,2069.0,5557072.0,
2467.0,4052.0,2067.0,2070.0,5557076.0,
2467.0,4053.0,2046.0,2069.0,5557080.0,
2470.0,4055.0,2027.0,2069.0,5557084.0,
2470.0,4052.0,2016.0,2067.0,5557088.0,
2470.0,4055.0,2002.0,2070.0,5557092.0,
2467.0,4053.0,1995.0,2066.0,5557095.0,
2463.0,4052.0,1986.0,2064.0,5557099.0,
2470.0,4055.0,1979.0,2066.0,5557103.0,
2470.0,4053.0,1979.0,2060.0,5557107.0,
2470.0,4054.0,1974.0,2063.0,5557111.0,
2468.0,4053.0,1975.0,2059.0,5557115.0,
2466.0,4053.0,1975.0,2060.0,5557118.0,
2469.0,4053.0,1977.0,2057.0,5557122.0,
2471.0,4054.0,1976.0,2060.0,5557126.0,
2470.0,4053.0,1978.0,2053.0,5557130.0,
2468.0,4054.0,1982.0,2054.0,5557134.0,
2468.0,4053.0,1984.0,2049.0,5557138.0,
2468.0,4054.0,1985.0,2051.0,5557142.0,
2471.0,4053.0,1991.0,2047.0,5557145.0,
2471.0,4054.0,1992.0,2047.0,5557149.0,
2469.0,4056.0,1993.0,2043.0,5557153.0,
2467.0,4054.0,1993.0,2044.0,5557157.0,
2468.0,4053.0,1994.0,2041.0,5557161.0,
2472.0,4053.0,1993.0,2037.0,5557165.0,
2471.0,4053.0,1995.0,2034.0,5557168.0,
2469.0,4053.0,1994.0,2034.0,5557172.0,
2466.0,4055.0,1995.0,2035.0,5557176.0,
2467.0,4051.0,1998.0,2032.0,5557180.0,
2470.0,4054.0,2001.0,2031.0,5557184.0,
2471.0,4053.0,2005.0,2029.0,5557187.0,
2469.0,4055.0,2002.0,2028.0,5557191.0,
2466.0,4055.0,2007.0,2027.0,5557195.0,
2468.0,4054.0,2011.0,2025.0,5557199.0,
2469.0,4054.0,2013.0,2026.0,5557203.0,
2471.0,4053.0,2014.0,2024.0,5557206.0,
2471.0,4054.0,2014.0,2022.0,5557210.0,
2470.0,4054.0,2021.0,2022.0,5557214.0,
2467.0,4053.0,2024.0,2019.0,5557218.0,
2469.0,4054.0,2028.0,2023.0,5557222.0,
2471.0,4052.0,2030.0,2018.0,5557226.0,
2470.0,4055.0,2035.0,2020.0,5557229.0,
2468.0,4053.0,2034.0,2019.0,5557233.0,
2466.0,4054.0,2035.0,2020.0,5557237.0,
2468.0,4054.0,2037.0,2020.0,5557241.0,
2471.0,4052.0,2035.0,2017.0,5557245.0,
2471.0,4050.0,2034.0,2014.0,5557249.0,
2469.0,4051.0,2033.0,2010.0,5557252.0,
2468.0,4050.0,2031.0,2007.0,5557256.0,
2468.0,4051.0,2030.0,2003.0,5557260.0,
2469.0,4055.0,2032.0,2005.0,5557264.0,
2471.0,4052.0,2030.0,2006.0,5557268.0,
2469.0,4055.0,2029.0,2012.0,5557272.0,
2465.0,4053.0,2025.0,2011.0,5557275.0,
2467.0,4053.0,2027.0,2013.0,5557279.0,
2471.0,4055.0,2021.0,2018.0,5557283.0,
2472.0,4053.0,2016.0,2017.0,5557287.0,
2470.0,4054.0,2011.0,2022.0,5557291.0,
2468.0,4053.0,2007.0,2022.0,5557295.0,
2467.0,4055.0,2000.0,2026.0,5557298.0,
2469.0,4054.0,1995.0,2026.0,5557302.0,
2473.0,4053.0,1990.0,2027.0,5557306.0,
2469.0,4054.0,1979.0,2028.0,5557310.0,
2468.0,4054.0,1976.0,2030.0,5557314.0,
2467.0,4054.0,1970.0,2032.0,5557318.0,
2469.0,4053.0,1964.0,2030.0,5557321.0,
2470.0,4052.0,1958.0,2032.0,5557325.0,
2472.0,4054.0,1957.0,2032.0,5557329.0,
2468.0,4052.0,1949.0,2031.0,5557333.0,
2467.0,4053.0,1944.0,2031.0,5557337.0,
2468.0,4054.0,1942.0,2030.0,5557340.0,
2471.0,4052.0,1939.0,2027.0,5557344.0,
2472.0,4053.0,1938.0,2030.0,5557348.0,
2469.0,4054.0,1934.0,2030.0,5557352.0,
2467.0,4054.0,1936.0,2029.0,5557356.0,
2469.0,4052.0,1934.0,2026.0,5557360.0,
2469.0,4053.0,1938.0,2028.0,5557364.0,
2473.0,4055.0,1940.0,2031.0,5557368.0,
2471.0,4053.0,1942.0,2030.0,5557371.0,
2469.0,4053.0,1944.0,2030.0,5557375.0,
2468.0,4054.0,1946.0,2032.0,5557379.0,
2469.0,4053.0,1948.0,2033.0,5557383.0,
2471.0,4053.0,1955.0,2034.0,5557388.0,
2471.0,4054.0,1959.0,2037.0,5557392.0,
2468.0,4052.0,1965.0,2039.0,5557396.0,
2468.0,4054.0,1971.0,2042.0,5557399.0,
2470.0,4054.0,1979.0,2043.0,5557403.0,
2472.0,4053.0,1987.0,2046.0,5557407.0,
2471.0,4054.0,1991.0,2050.0,5557411.0,
2468.0,4054.0,2001.0,2049.0,5557415.0,
2468.0,4054.0,2005.0,2054.0,5557419.0,
2472.0,4053.0,2012.0,2056.0,5557422.0,
2472.0,4055.0,2022.0,2058.0,5557426.0,
2471.0,4054.0,2030.0,2061.0,5557430.0,
2469.0,4054.0,2040.0,2067.0,5557434.0,
2468.0,4050.0,2047.0,2067.0,5557438.0,
2471.0,4055.0,2058.0,2072.0,5557441.0,
2473.0,4052.0,2070.0,2073.0,5557445.0,
2472.0,4053.0,2080.0,2074.0,5557449.0,
2469.0,4053.0,2095.0,2076.0,5557453.0,
2469.0,4052.0,2110.0,2078.0,5557457.0,
2471.0,4054.0,2125.0,2081.0,5557460.0,
2473.0,4055.0,2140.0,2082.0,5557464.0,
2472.0,4054.0,2155.0,2085.0,5557468.0,
2471.0,4055.0,2171.0,2087.0,5557472.0,
2470.0,4054.0,2184.0,2089.0,5557476.0,
2470.0,4054.0,2196.0,2089.0,5557480.0,
2473.0,4054.0,2206.0,2090.0,5557483.0,
2472.0,4055.0,2214.0,2096.0,5557487.0,
2471.0,4053.0,2217.0,2092.0,5557491.0,
2470.0,4052.0,2229.0,2095.0,5557495.0,
2470.0,4053.0,2238.0,2096.0,5557499.0,
2472.0,4053.0,2246.0,2097.0,5557502.0,
2473.0,4055.0,2257.0,2097.0,5557506.0,
2471.0,4053.0,2271.0,2099.0,5557510.0,
2469.0,4052.0,2279.0,2097.0,5557514.0,
2469.0,4052.0,2288.0,2096.0,5557518.0,
2471.0,4051.0,2296.0,2094.0,5557522.0,
2472.0,4053.0,2306.0,2095.0,5557525.0,
2472.0,4053.0,2316.0,2096.0,5557529.0,
2471.0,4053.0,2323.0,2096.0,5557533.0,
2468.0,4052.0,2323.0,2096.0,5557537.0,
2469.0,4052.0,2328.0,2091.0,5557541.0,
2472.0,4054.0,2330.0,2092.0,5557545.0,
2472.0,4054.0,2329.0,2094.0,5557549.0,
2470.0,4051.0,2335.0,2094.0,5557552.0,
2469.0,4050.0,2331.0,2094.0,5557556.0,
2469.0,4054.0,2328.0,2096.0,5557560.0,
2472.0,4053.0,2324.0,2097.0,5557564.0,
2472.0,4052.0,2319.0,2093.0,5557568.0,
2470.0,4052.0,2310.0,2091.0,5557572.0,
2467.0,4053.0,2300.0,2087.0,5557575.0,
2468.0,4053.0,2291.0,2084.0,5557579.0,
2470.0,4053.0,2280.0,2079.0,5557583.0,
2472.0,4052.0,2269.0,2081.0,5557587.0,
2470.0,4052.0,2258.0,2075.0,5557591.0,
2466.0,4056.0,2249.0,2075.0,5557595.0,
2467.0,4051.0,2237.0,2071.0,5557598.0,
2469.0,4052.0,2226.0,2068.0,5557602.0,
2473.0,4052.0,2214.0,2067.0,5557606.0,
2470.0,4051.0,2205.0,2064.0,5557610.0,
2469.0,4053.0,2198.0,2062.0,5557614.0,
2467.0,4051.0,2189.0,2060.0,5557617.0,
2467.0,4051.0,2186.0,2053.0,5557621.0,
2470.0,4051.0,2183.0,2057.0,5557625.0,
2471.0,4053.0,2177.0,2056.0,5557629.0,
2469.0,4053.0,2176.0,2057.0,5557633.0,
2466.0,4054.0,2175.0,2058.0,5557637.0,
2468.0,4054.0,2170.0,2060.0,5557641.0,
2469.0,4054.0,2167.0,2053.0,5557644.0,
2471.0,4051.0,2164.0,2054.0,5557648.0,
2469.0,4055.0,2161.0,2055.0,5557652.0,
2466.0,4052.0,2156.0,2053.0,5557656.0,
2466.0,4051.0,2157.0,2053.0,5557660.0,
2470.0,4052.0,2157.0,2049.0,5557664.0,
2470.0,4052.0,2156.0,2050.0,5557667.0,
2468.0,4051.0,2158.0,2049.0,5557671.0,
2466.0,4051.0,2160.0,2048.0,5557675.0,
2467.0,4052.0,2162.0,2047.0,5557679.0,
2468.0,4053.0,2164.0,2047.0,5557683.0,
2470.0,4053.0,2167.0,2044.0,5557686.0,
2469.0,4051.0,2167.0,2047.0,5557690.0,
2466.0,4051.0,2173.0,2042.0,5557694.0,
2466.0,4052.0,2174.0,2043.0,5557698.0,
2468.0,4050.0,2175.0,2038.0,5557702.0,
2470.0,4052.0,2177.0,2040.0,5557705.0,
2470.0,4051.0,2177.0,2036.0,5557709.0,
2468.0,4053.0,2174.0,2037.0,5557713.0,
2467.0,4050.0,2171.0,2035.0,5557717.0,
2467.0,4053.0,2166.0,2039.0,5557721.0,
2469.0,4051.0,2159.0,2034.0,5557725.0,
2470.0,4054.0,2155.0,2036.0,5557728.0,
2468.0,4054.0,2151.0,2037.0,5557732.0,
2467.0,4053.0,2144.0,2041.0,5557736.0,
2466.0,4051.0,2134.0,2042.0,5557740.0,
2469.0,4052.0,2126.0,2042.0,5557744.0,
2470.0,4053.0,2122.0,2043.0,5557747.0,
2469.0,4054.0,2114.0,2050.0,5557751.0,
2468.0,4054.0,2106.0,2051.0,5557755.0,
2467.0,4054.0,2098.0,2054.0,5557759.0,
2468.0,4053.0,2087.0,2055.0,5557763.0,
2469.0,4053.0,2073.0,2051.0,5557767.0,
2469.0,4053.0,2061.0,2051.0,5557770.0,
2468.0,4051.0,2052.0,2048.0,5557774.0,
2466.0,4053.0,2041.0,2047.0,5557778.0,
2467.0,4053.0,2030.0,2045.0,5557782.0,
2470.0,4053.0,2019.0,2047.0,5557786.0,
2469.0,4052.0,2009.0,2043.0,5557789.0,
2468.0,4054.0,1996.0,2041.0,5557793.0,
2467.0,4052.0,1987.0,2040.0,5557797.0,
2468.0,4054.0,1974.0,2037.0,5557801.0,
2468.0,4051.0,1971.0,2035.0,5557805.0,
2470.0,4053.0,1961.0,2034.0,5557808.0,
2470.0,4055.0,1957.0,2034.0,5557812.0,
2466.0,4053.0,1953.0,2030.0,5557816.0,
2467.0,4053.0,1946.0,2030.0,5557820.0,
2470.0,4053.0,1945.0,2024.0,5557824.0,
2470.0,4054.0,1947.0,2028.0,5557828.0,
2469.0,4054.0,1949.0,2025.0,5557832.0,
2466.0,4052.0,1949.0,2026.0,5557835.0,
2468.0,4054.0,1956.0,2027.0,5557839.0,
2468.0,4052.0,1960.0,2027.0,5557843.0,
2471.0,4053.0,1963.0,2027.0,5557847.0,
2470.0,4052.0,1970.0,2026.0,5557851.0,
2467.0,4053.0,1971.0,2028.0,5557855.0,
2467.0,4053.0,1977.0,2027.0,5557858.0,
2466.0,4054.0,1979.0,2026.0,5557862.0,
2471.0,4052.0,1980.0,2022.0,5557866.0,
2470.0,4054.0,1981.0,2025.0,5557870.0,
2468.0,4053.0,1979.0,2024.0,5557874.0,
2467.0,4054.0,1976.0,2025.0,5557877.0,
2468.0,4054.0,1977.0,2025.0,5557881.0,
2471.0,4054.0,1973.0,2023.0,5557885.0,
2471.0,4052.0,1973.0,2022.0,5557889.0,
2469.0,4054.0,1969.0,2023.0,5557893.0,
2468.0,4052.0,1967.0,2020.0,5557897.0,
2470.0,4054.0,1966.0,2020.0,5557900.0,
2470.0,4052.0,1970.0,2021.0,5557904.0,
2472.0,4054.0,1968.0,2021.0,5557908.0,
2470.0,4053.0,1967.0,2019.0,5557912.0,
2467.0,4054.0,1968.0,2020.0,5557916.0,
2468.0,4053.0,1964.0,2021.0,5557920.0,
2470.0,4053.0,1964.0,2020.0,5557923.0,
2472.0,4053.0,1961.0,2018.0,5557927.0,
2471.0,4052.0,1962.0,2018.0,5557931.0,
2468.0,4053.0,1958.0,2016.0,5557935.0,
2467.0,4050.0,1956.0,2008.0,5557939.0,
2470.0,4052.0,1955.0,2009.0,5557943.0,
2472.0,4052.0,1952.0,2004.0,5557946.0,
2471.0,4052.0,1952.0,2004.0,5557950.0,
2469.0,4052.0,1954.0,2000.0,5557954.0,
2467.0,4055.0,1951.0,2001.0,5557958.0,
2469.0,4048.0,1947.0,1996.0,5557962.0,
2472.0,4051.0,1950.0,1997.0,5557965.0,
2471.0,4052.0,1945.0,1998.0,5557969.0,
2469.0,4051.0,1940.0,1994.0,5557973.0,
2468.0,4051.0,1937.0,1994.0,5557977.0,
2469.0,4054.0,1937.0,1995.0,5557981.0,
2470.0,4053.0,1935.0,1994.0,5557985.0,
2472.0,4053.0,1936.0,1993.0,5557989.0,
2470.0,4055.0,1935.0,2000.0,5557993.0,
2469.0,4053.0,1926.0,1999.0,5557997.0,
2469.0,4054.0,1926.0,2003.0,5558000.0,
2470.0,4054.0,1922.0,2005.0,5558004.0,
2472.0,4053.0,1918.0,2008.0,5558008.0,
2471.0,4053.0,1916.0,2011.0,5558012.0,
2469.0,4054.0,1906.0,2013.0,5558016.0,
2468.0,4056.0,1902.0,2016.0,5558019.0,
2470.0,4054.0,1898.0,2017.0,5558023.0,
2472.0,4054.0,1888.0,2018.0,5558027.0,
2470.0,4053.0,1882.0,2018.0,5558032.0,
2468.0,4052.0,1878.0,2018.0,5558036.0,
2468.0,4055.0,1873.0,2017.0,5558040.0,
2469.0,4052.0,1870.0,2016.0,5558044.0,
2471.0,4053.0,1862.0,2018.0,5558048.0,
2470.0,4053.0,1860.0,2016.0,5558052.0,
2467.0,4053.0,1857.0,2016.0,5558056.0,
2467.0,4051.0,1851.0,2017.0,5558060.0,
2469.0,4053.0,1853.0,2018.0,5558063.0,
2470.0,4053.0,1849.0,2020.0,5558067.0,
2469.0,4052.0,1848.0,2018.0,5558071.0,
2469.0,4054.0,1847.0,2021.0,5558075.0,
2468.0,4052.0,1850.0,2021.0,5558079.0,
2467.0,4054.0,1851.0,2023.0,5558083.0,
2471.0,4052.0,1855.0,2026.0,5558086.0,
2469.0,4053.0,1859.0,2028.0,5558090.0,
2467.0,4054.0,1864.0,2028.0,5558094.0,
2467.0,4053.0,1868.0,2030.0,5558098.0,
2467.0,4052.0,1870.0,2031.0,5558102.0,
2468.0,4054.0,1871.0,2035.0,5558106.0,
2471.0,4051.0,1878.0,2036.0,5558109.0,
2468.0,4053.0,1884.0,2040.0,5558113.0,
2465.0,4051.0,1887.0,2040.0,5558117.0,
2467.0,4052.0,1895.0,2044.0,5558121.0,
2468.0,4052.0,1904.0,2045.0,5558125.0,
2469.0,4052.0,1913.0,2048.0,5558129.0,
2467.0,4051.0,1924.0,2047.0,5558133.0,
2466.0,4052.0,1936.0,2051.0,5558137.0,
2466.0,4051.0,1953.0,2052.0,5558141.0,
2469.0,4053.0,1963.0,2058.0,5558145.0,
2470.0,4052.0,1980.0,2060.0,5558149.0,
2468.0,4054.0,1993.0,2067.0,5558153.0,
2465.0,4051.0,2009.0,2070.0,5558156.0,
2467.0,4052.0,2028.0,2074.0,5558160.0,
2469.0,4054.0,2043.0,2079.0,5558164.0,
2470.0,4053.0,2062.0,2080.0,5558168.0,
2469.0,4054.0,2078.0,2083.0,5558172.0,
2467.0,4054.0,2092.0,2088.0,5558176.0,
2467.0,4054.0,2109.0,2090.0,5558179.0,
2469.0,4053.0,2124.0,2091.0,5558183.0,
2470.0,4052.0,2140.0,2089.0,5558187.0,
2470.0,4052.0,2156.0,2090.0,5558191.0,
2468.0,4053.0,2176.0,2093.0,5558195.0,
2467.0,4051.0,2189.0,2090.0,5558199.0,
2466.0,4051.0,2201.0,2090.0,5558202.0,
2471.0,4052.0,2214.0,2088.0,5558206.0,
2471.0,4052.0,2230.0,2088.0,5558210.0,
2468.0,4053.0,2244.0,2085.0,5558214.0,
2467.0,4053.0,2255.0,2084.0,5558218.0,
2468.0,4053.0,2271.0,2086.0,5558221.0,
2470.0,4051.0,2283.0,2082.0,5558225.0,
2470.0,4051.0,2296.0,2081.0,5558229.0,
2470.0,4050.0,2307.0,2082.0,5558233.0,
2467.0,4051.0,2312.0,2081.0,5558237.0,
2467.0,4052.0,2324.0,2081.0,5558240.0,
2470.0,4052.0,2333.0,2081.0,5558244.0,
2472.0,4052.0,2338.0,2083.0,5558248.0,
2470.0,4050.0,2339.0,2081.0,5558252.0,
2467.0,4052.0,2343.0,2080.0,5558256.0,
2468.0,4052.0,2346.0,2081.0,5558260.0,
2470.0,4054.0,2347.0,2079.0,5558263.0,
2471.0,4052.0,2348.0,2078.0,5558267.0,
2470.0,4053.0,2344.0,2078.0,5558271.0,
2468.0,4051.0,2342.0,2083.0,5558275.0,
2467.0,4052.0,2334.0,2078.0,5558279.0,
2469.0,4052.0,2328.0,2081.0,5558283.0,
2472.0,4051.0,2330.0,2079.0,5558286.0,
2471.0,4052.0,2322.0,2076.0,5558290.0,
2468.0,4050.0,2319.0,2074.0,5558294.0,
2467.0,4052.0,2311.0,2075.0,5558298.0,
2466.0,4051.0,2308.0,2075.0,5558302.0,
2470.0,4051.0,2306.0,2071.0,5558305.0,
2470.0,4050.0,2302.0,2072.0,5558309.0,
2468.0,4051.0,2299.0,2068.0,5558313.0,
2466.0,4053.0,2302.0,2066.0,5558317.0,
2467.0,4052.0,2297.0,2064.0,5558321.0,
2469.0,4052.0,2297.0,2060.0,5558324.0,
2470.0,4050.0,2294.0,2057.0,5558328.0,
2470.0,4055.0,2294.0,2057.0,5558332.0,
2466.0,4053.0,2292.0,2056.0,5558336.0,
2465.0,4053.0,2290.0,2053.0,5558340.0,
2467.0,4047.0,2287.0,2052.0,5558344.0,
2468.0,4053.0,2285.0,2051.0,5558347.0,
2469.0,4051.0,2280.0,2047.0,5558351.0,
2468.0,4048.0,2277.0,2049.0,5558355.0,
2465.0,4050.0,2267.0,2045.0,5558359.0,
2465.0,4052.0,2260.0,2044.0,5558363.0,
2469.0,4051.0,2254.0,2042.0,5558366.0,
2468.0,4051.0,2243.0,2041.0,5558370.0,
2468.0,4050.0,2235.0,2040.0,5558374.0,
2466.0,4052.0,2222.0,2040.0,5558378.0,
2465.0,4051.0,2209.0,2040.0,5558382.0,
2468.0,4053.0,2198.0,2041.0,5558385.0,
2468.0,4049.0,2185.0,2040.0,5558389.0,
2466.0,4052.0,2173.0,2037.0,5558393.0,
2464.0,4052.0,2162.0,2038.0,5558397.0,
2464.0,4050.0,2148.0,2040.0,5558401.0,
2467.0,4051.0,2138.0,2038.0,5558405.0,
2468.0,4052.0,2128.0,2040.0,5558409.0,
2466.0,4051.0,2117.0,2037.0,5558413.0,
2464.0,4053.0,2104.0,2037.0,5558417.0,
2466.0,4051.0,2095.0,2035.0,5558421.0,
2466.0,4052.0,2085.0,2039.0,5558424.0,
2467.0,4051.0,2071.0,2039.0,5558428.0,
2466.0,4053.0,2059.0,2039.0,5558432.0,
2463.0,4051.0,2051.0,2037.0,5558436.0,
2464.0,4052.0,2044.0,2040.0,5558440.0,
2467.0,4051.0,2038.0,2034.0,5558444.0,
2468.0,4051.0,2035.0,2040.0,5558447.0,
2466.0,4053.0,2033.0,2039.0,5558451.0,
2464.0,4053.0,2032.0,2037.0,5558455.0,
2463.0,4051.0,2033.0,2036.0,5558459.0,
2466.0,4053.0,2033.0,2039.0,5558463.0,
2467.0,4051.0,2035.0,2037.0,5558466.0,
2467.0,4052.0,2036.0,2038.0,5558470.0,
2465.0,4052.0,2041.0,2037.0,5558474.0,
2463.0,4051.0,2037.0,2036.0,5558478.0,
2466.0,4052.0,2045.0,2040.0,5558482.0,
2468.0,4053.0,2048.0,2039.0,5558486.0,
2467.0,4054.0,2048.0,2038.0,5558489.0,
2465.0,4053.0,2054.0,2040.0,5558493.0,
2464.0,4051.0,2054.0,2035.0,5558497.0,
2464.0,4052.0,2056.0,2040.0,5558501.0,
2467.0,4053.0,2060.0,2035.0,5558505.0,
2468.0,4052.0,2061.0,2035.0,5558509.0,
2466.0,4051.0,2064.0,2035.0,5558513.0,
2464.0,4053.0,2065.0,2034.0,5558516.0,
2465.0,4052.0,2066.0,2033.0,5558520.0,
2467.0,4050.0,2065.0,2030.0,5558524.0,
2468.0,4053.0,2067.0,2031.0,5558528.0,
2467.0,4051.0,2067.0,2029.0,5558532.0,
2465.0,4052.0,2067.0,2029.0,5558536.0,
2463.0,4050.0,2065.0,2026.0,5558539.0,
2465.0,4052.0,2066.0,2027.0,5558544.0,
2469.0,4050.0,2063.0,2024.0,5558547.0,
2467.0,4051.0,2058.0,2023.0,5558551.0,
2466.0,4052.0,2057.0,2023.0,5558555.0,
2464.0,4050.0,2057.0,2020.0,5558559.0,
2466.0,4052.0,2054.0,2022.0,5558563.0,
2467.0,4051.0,2057.0,2018.0,5558566.0,
2468.0,4051.0,2056.0,2016.0,5558570.0,
2466.0,4050.0,2057.0,2014.0,5558574.0,
2465.0,4053.0,2056.0,2016.0,5558578.0,
2465.0,4051.0,2054.0,2013.0,5558582.0,
2467.0,4053.0,2050.0,2012.0,5558585.0,
2468.0,4052.0,2051.0,2012.0,5558589.0,
2466.0,4052.0,2050.0,2014.0,5558593.0,
2465.0,4054.0,2049.0,2011.0,5558597.0,
2465.0,4053.0,2047.0,2011.0,5558601.0,
2468.0,4051.0,2045.0,2010.0,5558605.0,
2470.0,4052.0,2042.0,2011.0,5558608.0,
2468.0,4053.0,2036.0,2010.0,5558612.0,
2465.0,4050.0,2035.0,2007.0,5558616.0,
2465.0,4052.0,2029.0,2010.0,5558620.0,
2468.0,4051.0,2023.0,2008.0,5558624.0,
2469.0,4052.0,2017.0,2008.0,5558627.0,
2469.0,4049.0,2011.0,2009.0,5558631.0,
2467.0,4053.0,2004.0,2007.0,5558635.0,
2465.0,4051.0,1999.0,2004.0,5558639.0,
2467.0,4052.0,1995.0,2003.0,5558643.0,
2469.0,4052.0,1992.0,2000.0,5558647.0,
2469.0,4052.0,1987.0,2004.0,5558651.0,
2467.0,4051.0,1982.0,2000.0,5558654.0,
2466.0,4053.0,1974.0,2004.0,5558658.0,
2467.0,4052.0,1969.0,2004.0,5558662.0,
2469.0,4052.0,1962.0,2004.0,5558666.0,
2469.0,4052.0,1964.0,2007.0,5558670.0,
2468.0,4053.0,1963.0,2010.0,5558674.0,
2466.0,4052.0,1959.0,2012.0,5558677.0,
2466.0,4052.0,1959.0,2014.0,5558681.0,
2469.0,4052.0,1950.0,2016.0,5558685.0,
2466.0,4052.0,1947.0,2015.0,5558689.0,
2468.0,4052.0,1943.0,2019.0,5558693.0,
2466.0,4052.0,1939.0,2018.0,5558697.0,
2466.0,4053.0,1931.0,2018.0,5558701.0,
2468.0,4051.0,1930.0,2019.0,5558704.0,
2471.0,4051.0,1925.0,2020.0,5558708.0,
2469.0,4051.0,1924.0,2022.0,5558712.0,
2473.0,4053.0,1920.0,2026.0,5558716.0,
2466.0,4050.0,1917.0,2022.0,5558720.0,
2469.0,4053.0,1913.0,2025.0,5558723.0,
2469.0,4052.0,1916.0,2025.0,5558727.0,
2469.0,4052.0,1911.0,2032.0,5558731.0,
2467.0,4053.0,1910.0,2034.0,5558735.0,
2466.0,4051.0,1911.0,2036.0,5558739.0,
2469.0,4054.0,1910.0,2039.0,5558742.0,
2470.0,4051.0,1912.0,2041.0,5558746.0,
2470.0,4051.0,1913.0,2044.0,5558750.0,
2467.0,4052.0,1914.0,2048.0,5558754.0,
2465.0,4050.0,1918.0,2052.0,5558758.0,
2466.0,4081.0,1921.0,2054.0,5558761.0,
2469.0,4053.0,1934.0,2058.0,5558765.0,
2471.0,4051.0,1945.0,2061.0,5558769.0,
2468.0,4051.0,1955.0,2063.0,5558773.0,
2466.0,4051.0,1967.0,2067.0,5558778.0,
2468.0,4052.0,1977.0,2070.0,5558782.0,
2469.0,4051.0,1989.0,2071.0,5558786.0,
2470.0,4052.0,2005.0,2075.0,5558789.0,
2468.0,4053.0,2018.0,2078.0,5558793.0,
2467.0,4053.0,2032.0,2078.0,5558797.0,
2466.0,4051.0,2049.0,2079.0,5558801.0,
2469.0,4052.0,2063.0,2081.0,5558805.0,
2470.0,4050.0,2079.0,2082.0,5558808.0,
2469.0,4052.0,2097.0,2086.0,5558812.0,
2466.0,4050.0,2112.0,2087.0,5558816.0,
2466.0,4050.0,2130.0,2085.0,5558820.0,
2468.0,4051.0,2142.0,2087.0,5558824.0,
2470.0,4051.0,2157.0,2088.0,5558828.0,
2469.0,4050.0,2169.0,2088.0,5558831.0,
2467.0,4052.0,2180.0,2091.0,5558835.0,
2466.0,4050.0,2190.0,2090.0,5558839.0,
2468.0,4051.0,2201.0,2089.0,5558843.0,
2470.0,4052.0,2206.0,2094.0,5558847.0,
2470.0,4051.0,2214.0,2093.0,5558851.0,
2468.0,4051.0,2218.0,2093.0,5558854.0,
2466.0,4053.0,2221.0,2097.0,5558858.0,
2466.0,4052.0,2226.0,2098.0,5558862.0,
2470.0,4050.0,2235.0,2097.0,5558866.0,
2469.0,4051.0,2237.0,2099.0,5558870.0,
2467.0,4050.0,2242.0,2101.0,5558874.0,
2464.0,4050.0,2244.0,2100.0,5558878.0,
2465.0,4050.0,2247.0,2098.0,5558881.0,
2470.0,4052.0,2249.0,2102.0,5558885.0,
2469.0,4051.0,2255.0,2099.0,5558889.0,
2467.0,4051.0,2255.0,2098.0,5558893.0,
2466.0,4051.0,2257.0,2099.0,5558897.0,
2466.0,4050.0,2254.0,2098.0,5558901.0,
2468.0,4051.0,2254.0,2097.0,5558905.0,
2470.0,4051.0,2252.0,2095.0,5558908.0,
2468.0,4052.0,2250.0,2094.0,5558912.0,
2467.0,4050.0,2252.0,2089.0,5558916.0,
2466.0,4052.0,2251.0,2087.0,5558920.0,
2468.0,4050.0,2252.0,2086.0,5558924.0,
2470.0,4051.0,2250.0,2082.0,5558928.0,
2469.0,4050.0,2250.0,2082.0,5558931.0,
2467.0,4050.0,2248.0,2081.0,5558935.0,
2463.0,4050.0,2247.0,2078.0,5558939.0,
2466.0,4053.0,2242.0,2078.0,5558943.0,
2469.0,4053.0,2238.0,2076.0,5558947.0,
2469.0,4051.0,2237.0,2073.0,5558951.0,
2468.0,4051.0,2231.0,2070.0,5558955.0,
2466.0,4051.0,2225.0,2067.0,5558958.0,
2467.0,4050.0,2223.0,2065.0,5558962.0,
2469.0,4052.0,2215.0,2066.0,5558966.0,
2469.0,4050.0,2209.0,2063.0,5558970.0,
2467.0,4051.0,2206.0,2060.0,5558974.0,
2465.0,4050.0,2197.0,2058.0,5558978.0,
2466.0,4050.0,2187.0,2058.0,5558981.0,
2470.0,4052.0,2181.0,2057.0,5558985.0,
2470.0,4052.0,2171.0,2053.0,5558989.0,
2470.0,4052.0,2165.0,2054.0,5558993.0,
2467.0,4052.0,2155.0,2050.0,5558997.0,
2469.0,4052.0,2149.0,2049.0,5559001.0,
2469.0,4051.0,2142.0,2047.0,5559005.0,
2470.0,4050.0,2135.0,2046.0,5559008.0,
2467.0,4050.0,2130.0,2044.0,5559012.0,
2467.0,4051.0,2126.0,2045.0,5559016.0,
2466.0,4052.0,2119.0,2045.0,5559020.0,
2469.0,4053.0,2113.0,2044.0,5559024.0,
2472.0,4049.0,2107.0,2043.0,5559028.0,
2471.0,4052.0,2105.0,2043.0,5559032.0,
2467.0,4052.0,2103.0,2040.0,5559035.0,
2466.0,4051.0,2102.0,2039.0,5559039.0,
2467.0,4050.0,2095.0,2038.0,5559043.0,
2469.0,4052.0,2095.0,2039.0,5559047.0,
2468.0,4050.0,2093.0,2039.0,5559051.0,
2468.0,4052.0,2090.0,2039.0,5559055.0,
2466.0,4050.0,2089.0,2038.0,5559058.0,
2467.0,4051.0,2083.0,2038.0,5559062.0,
2470.0,4052.0,2081.0,2038.0,5559066.0,
2470.0,4051.0,2084.0,2040.0,5559070.0,
2468.0,4052.0,2081.0,2040.0,5559074.0,
2467.0,4051.0,2082.0,2039.0,5559078.0,
2467.0,4052.0,2080.0,2039.0,5559081.0,
2472.0,4049.0,2084.0,2041.0,5559085.0,
2470.0,4052.0,2084.0,2045.0,5559089.0,
2468.0,4051.0,2084.0,2040.0,5559093.0,
2468.0,4051.0,2083.0,2042.0,5559097.0,
2467.0,4050.0,2081.0,2040.0,5559101.0,
2469.0,4052.0,2082.0,2043.0,5559104.0,
2471.0,4050.0,2083.0,2043.0,5559109.0,
2469.0,4052.0,2082.0,2046.0,5559113.0,
2468.0,4050.0,2085.0,2043.0,5559117.0,
2468.0,4052.0,2085.0,2048.0,5559121.0,
2472.0,4051.0,2087.0,2046.0,5559125.0,
2471.0,4051.0,2088.0,2044.0,5559129.0,
2469.0,4050.0,2088.0,2044.0,5559133.0,
2467.0,4050.0,2089.0,2041.0,5559137.0,
2468.0,4051.0,2090.0,2045.0,5559141.0,
2469.0,4050.0,2095.0,2044.0,5559145.0,
2471.0,4050.0,2101.0,2042.0,5559149.0,
2469.0,4051.0,2108.0,2043.0,5559154.0,
2468.0,4051.0,2116.0,2045.0,5559158.0,
2467.0,4050.0,2124.0,2044.0,5559162.0,
2470.0,4052.0,2130.0,2042.0,5559166.0,
2471.0,4051.0,2132.0,2044.0,5559171.0,
2467.0,4051.0,2134.0,2043.0,5559175.0,
2467.0,4082.0,2140.0,2044.0,5559179.0,
2468.0,4051.0,2142.0,2043.0,5559184.0,
2471.0,4052.0,2142.0,2041.0,5559188.0,
2469.0,4051.0,2143.0,2041.0,5559192.0,
2468.0,4050.0,2143.0,2040.0,5559196.0,
2468.0,4050.0,2141.0,2039.0,5559200.0,
2469.0,4052.0,2138.0,2041.0,5559204.0,
2472.0,4051.0,2133.0,2042.0,5559208.0,
2470.0,4051.0,2127.0,2040.0,5559212.0,
2468.0,4050.0,2123.0,2036.0,5559216.0,
2468.0,4051.0,2123.0,2036.0,5559220.0,
2470.0,4052.0,2117.0,2035.0,5559224.0,
2471.0,4051.0,2112.0,2034.0,5559227.0,
2472.0,4052.0,2110.0,2036.0,5559231.0,
2469.0,4051.0,2105.0,2035.0,5559235.0,
2467.0,4051.0,2103.0,2032.0,5559239.0,
2470.0,4051.0,2099.0,2029.0,5559243.0,
2471.0,4052.0,2093.0,2029.0,5559247.0,
2472.0,4051.0,2089.0,2027.0,5559251.0,
2470.0,4053.0,2088.0,2027.0,5559254.0,
2467.0,4052.0,2075.0,2026.0,5559258.0,
2469.0,4052.0,2070.0,2027.0,5559262.0,
2471.0,4050.0,2067.0,2024.0,5559266.0,
2472.0,4052.0,2061.0,2025.0,5559270.0,
2470.0,4050.0,2057.0,2022.0,5559273.0,
2468.0,4052.0,2049.0,2022.0,5559277.0,
2468.0,4051.0,2045.0,2021.0,5559281.0,
2470.0,4052.0,2042.0,2022.0,5559285.0,
2472.0,4051.0,2038.0,2021.0,5559289.0,
2470.0,4051.0,2034.0,2021.0,5559292.0,
2468.0,4052.0,2032.0,2022.0,5559296.0,
2466.0,4052.0,2033.0,2021.0,5559300.0,
2470.0,4051.0,2028.0,2020.0,5559304.0,
2471.0,4051.0,2026.0,2019.0,5559308.0,
2470.0,4051.0,2022.0,2020.0,5559312.0,
2469.0,4049.0,2018.0,2020.0,5559316.0,
2468.0,4050.0,2013.0,2020.0,5559319.0,
2470.0,4050.0,2009.0,2020.0,5559323.0,
2472.0,4052.0,2008.0,2022.0,5559327.0,
2472.0,4051.0,2006.0,2021.0,5559331.0,
2469.0,4051.0,2001.0,2024.0,5559335.0,
2467.0,4052.0,1995.0,2024.0,5559338.0,
2468.0,4051.0,1994.0,2025.0,5559342.0,
2470.0,4052.0,1990.0,2027.0,5559346.0,
2471.0,4050.0,1985.0,2028.0,5559350.0,
2468.0,4051.0,1985.0,2033.0,5559354.0,
2467.0,4050.0,1982.0,2035.0,5559358.0,
2467.0,4052.0,1979.0,2037.0,5559361.0,
2469.0,4050.0,1979.0,2041.0,5559365.0,
2472.0,4052.0,1969.0,2043.0,5559369.0,
2468.0,4052.0,1965.0,2047.0,5559373.0,
2467.0,4051.0,1961.0,2054.0,5559377.0,
2466.0,4051.0,1959.0,2054.0,5559381.0,
2467.0,4052.0,1958.0,2057.0,5559384.0,
2470.0,4051.0,1958.0,2063.0,5559388.0,
2469.0,4051.0,1957.0,2064.0,5559392.0,
2470.0,4051.0,1959.0,2070.0,5559396.0,
2466.0,4049.0,1963.0,2070.0,5559400.0,
2467.0,4052.0,1968.0,2076.0,5559403.0,
2469.0,4054.0,1974.0,2079.0,5559407.0,
2469.0,4052.0,1981.0,2083.0,5559411.0,
2468.0,4051.0,1985.0,2082.0,5559415.0,
2465.0,4052.0,1993.0,2087.0,5559419.0,
2468.0,4052.0,1999.0,2091.0,5559423.0,
2469.0,4052.0,2009.0,2095.0,5559427.0,
2469.0,4051.0,2020.0,2096.0,5559431.0,
2467.0,4053.0,2034.0,2098.0,5559435.0,
2466.0,4050.0,2044.0,2100.0,5559439.0,
2467.0,4051.0,2058.0,2103.0,5559442.0,
2469.0,4051.0,2069.0,2107.0,5559446.0,
2470.0,4051.0,2084.0,2104.0,5559450.0,
2469.0,4049.0,2096.0,2107.0,5559454.0,
2466.0,4050.0,2108.0,2107.0,5559458.0,
2466.0,4050.0,2123.0,2108.0,5559461.0,
2468.0,4051.0,2130.0,2109.0,5559465.0,
2470.0,4051.0,2146.0,2113.0,5559469.0,
2469.0,4051.0,2157.0,2112.0,5559473.0,
2466.0,4052.0,2172.0,2111.0,5559477.0,
2466.0,4051.0,2184.0,2115.0,5559481.0,
2468.0,4051.0,2194.0,2116.0,5559484.0,
2470.0,4053.0,2209.0,2115.0,5559488.0,
2469.0,4049.0,2222.0,2113.0,5559492.0,
2467.0,4050.0,2237.0,2112.0,5559496.0,
2466.0,4051.0,2245.0,2112.0,5559500.0,
2468.0,4051.0,2256.0,2111.0,5559504.0,
2469.0,4051.0,2262.0,2113.0,5559507.0,
2469.0,4052.0,2271.0,2111.0,5559511.0,
2467.0,4049.0,2276.0,2111.0,5559515.0,
2466.0,4050.0,2282.0,2110.0,5559519.0,
2468.0,4050.0,2285.0,2109.0,5559523.0,
2468.0,4052.0,2288.0,2106.0,5559526.0,
2469.0,4051.0,2289.0,2109.0,5559530.0,
2469.0,4051.0,2290.0,2107.0,5559534.0,
2466.0,4050.0,2292.0,2107.0,5559538.0,
2463.0,4051.0,2292.0,2103.0,5559542.0,
2470.0,4050.0,2295.0,2104.0,5559546.0,
2471.0,4051.0,2297.0,2103.0,5559549.0,
2469.0,4049.0,2294.0,2098.0,5559553.0,
2468.0,4051.0,2295.0,2101.0,5559557.0,
2466.0,4052.0,2291.0,2099.0,5559561.0,
2469.0,4051.0,2287.0,2096.0,5559565.0,
2471.0,4052.0,2284.0,2091.0,5559568.0,
2470.0,4050.0,2276.0,2091.0,5559572.0,
2467.0,4051.0,2269.0,2090.0,5559576.0,
2468.0,4052.0,2263.0,2086.0,5559580.0,
2469.0,4052.0,2253.0,2087.0,5559584.0,
2471.0,4052.0,2244.0,2085.0,5559588.0,
2471.0,4052.0,2236.0,2084.0,5559591.0,
2468.0,4052.0,2226.0,2079.0,5559595.0,
2466.0,4052.0,2216.0,2079.0,5559599.0,
2468.0,4051.0,2206.0,2077.0,5559603.0,
2470.0,4051.0,2196.0,2073.0,5559607.0,
2471.0,4051.0,2188.0,2074.0,5559610.0,
2469.0,4052.0,2173.0,2070.0,5559614.0,
2467.0,4051.0,2165.0,2069.0,5559618.0,
2467.0,4049.0,2158.0,2067.0,5559622.0,
2465.0,4050.0,2150.0,2065.0,5559626.0,
2470.0,4050.0,2137.0,2065.0,5559630.0,
2469.0,4052.0,2127.0,2064.0,5559633.0,
2467.0,4052.0,2116.0,2064.0,5559637.0,
2467.0,4051.0,2106.0,2060.0,5559641.0,
2469.0,4050.0,2097.0,2058.0,5559645.0,
2471.0,4050.0,2093.0,2060.0,5559649.0,
2472.0,4051.0,2088.0,2059.0,5559652.0,
2468.0,4051.0,2079.0,2055.0,5559656.0,
2468.0,4049.0,2074.0,2055.0,5559660.0,
2468.0,4050.0,2068.0,2054.0,5559664.0,
2472.0,4051.0,2067.0,2053.0,5559668.0,
2471.0,4050.0,2061.0,2051.0,5559671.0,
2469.0,4050.0,2058.0,2053.0,5559675.0,
2468.0,4051.0,2054.0,2054.0,5559679.0,
2470.0,4052.0,2051.0,2054.0,5559683.0,
2472.0,4049.0,2049.0,2058.0,5559687.0,
2473.0,4052.0,2048.0,2056.0,5559690.0,
2471.0,4051.0,2045.0,2059.0,5559694.0,
2469.0,4051.0,2049.0,2057.0,5559698.0,
2470.0,4050.0,2050.0,2056.0,5559702.0,
2471.0,4053.0,2048.0,2053.0,5559706.0,
2472.0,4051.0,2050.0,2054.0,5559710.0,
2470.0,4052.0,2053.0,2056.0,5559713.0,
2469.0,4050.0,2053.0,2052.0,5559717.0,
2468.0,4050.0,2055.0,2055.0,5559721.0,
2471.0,4051.0,2056.0,2053.0,5559725.0,
2472.0,4050.0,2059.0,2054.0,5559729.0,
2471.0,4051.0,2060.0,2053.0,5559732.0,
2470.0,4051.0,2061.0,2052.0,5559736.0,
2468.0,4052.0,2061.0,2051.0,5559740.0,
2470.0,4051.0,2064.0,2051.0,5559744.0,
2472.0,4051.0,2069.0,2049.0,5559748.0,
2474.0,4050.0,2074.0,2047.0,5559752.0,
2470.0,4050.0,2074.0,2048.0,5559755.0,
2469.0,4050.0,2081.0,2047.0,5559759.0,
2470.0,4050.0,2083.0,2050.0,5559763.0,
2472.0,4052.0,2087.0,2047.0,5559767.0,
2472.0,4052.0,2090.0,2047.0,5559771.0,
2469.0,4049.0,2091.0,2044.0,5559775.0,
2469.0,4053.0,2096.0,2045.0,5559779.0,
2469.0,4051.0,2099.0,2043.0,5559783.0,
2472.0,4053.0,2100.0,2042.0,5559787.0,
2473.0,4052.0,2104.0,2042.0,5559790.0,
2471.0,4051.0,2105.0,2038.0,5559794.0,
2468.0,4049.0,2109.0,2038.0,5559798.0,
2468.0,4051.0,2110.0,2039.0,5559802.0,
2470.0,4050.0,2113.0,2037.0,5559806.0,
2472.0,4052.0,2116.0,2036.0,5559809.0,
2470.0,4050.0,2121.0,2033.0,5559813.0,
2469.0,4051.0,2125.0,2031.0,5559817.0,
2467.0,4052.0,2127.0,2032.0,5559821.0,
2470.0,4049.0,2128.0,2032.0,5559825.0,
2472.0,4051.0,2130.0,2032.0,5559829.0,
2471.0,4050.0,2135.0,2029.0,5559833.0,
2468.0,4052.0,2133.0,2028.0,5559836.0,
2468.0,4051.0,2133.0,2028.0,5559840.0,
2468.0,4053.0,2130.0,2028.0,5559844.0,
2472.0,4050.0,2127.0,2029.0,5559848.0,
2471.0,4051.0,2125.0,2026.0,5559852.0,
2468.0,4052.0,2119.0,2025.0,5559856.0,
2467.0,4052.0,2116.0,2026.0,5559860.0,
2468.0,4052.0,2115.0,2026.0,5559863.0,
2471.0,4050.0,2111.0,2023.0,5559867.0,
2470.0,4052.0,2107.0,2023.0,5559871.0,
2468.0,4051.0,2105.0,2021.0,5559875.0,
2467.0,4053.0,2104.0,2022.0,5559879.0,
2468.0,4051.0,2099.0,2019.0,5559883.0,
2471.0,4053.0,2092.0,2019.0,5559886.0,
2471.0,4051.0,2088.0,2018.0,5559890.0,
2470.0,4051.0,2083.0,2017.0,5559894.0,
2468.0,4052.0,2073.0,2019.0,5559898.0,
2468.0,4050.0,2066.0,2016.0,5559902.0,
2473.0,4052.0,2056.0,2015.0,5559905.0,
2472.0,4049.0,2048.0,2014.0,5559909.0,
2470.0,4052.0,2038.0,2019.0,5559913.0,
2468.0,4050.0,2030.0,2016.0,5559917.0,
2469.0,4054.0,2018.0,2015.0,5559921.0,
2469.0,4053.0,2011.0,2013.0,5559925.0,
2469.0,4051.0,2001.0,2014.0,5559929.0,
2469.0,4050.0,1994.0,2013.0,5559932.0,
2467.0,4052.0,1985.0,2012.0,5559936.0,
2467.0,4052.0,1981.0,2014.0,5559940.0,
2468.0,4051.0,1977.0,2009.0,5559944.0,
2470.0,4053.0,1972.0,2012.0,5559948.0,
2470.0,4051.0,1970.0,2011.0,5559952.0,
2468.0,4052.0,1962.0,2011.0,5559955.0,
2467.0,4052.0,1961.0,2011.0,5559959.0,
2468.0,4051.0,1959.0,2014.0,5559963.0,
2469.0,4053.0,1958.0,2013.0,5559967.0,
2470.0,4051.0,1957.0,2012.0,5559971.0,
2469.0,4050.0,1954.0,2015.0,5559975.0,
2467.0,4050.0,1953.0,2015.0,5559978.0,
2467.0,4050.0,1947.0,2019.0,5559982.0,
2469.0,4052.0,1947.0,2018.0,5559986.0,
2469.0,4051.0,1944.0,2020.0,5559990.0,
2469.0,4051.0,1942.0,2023.0,5559994.0,
2466.0,4050.0,1946.0,2025.0,5559998.0,
2465.0,4052.0,1939.0,2027.0,5560002.0,
2469.0,4050.0,1939.0,2031.0,5560005.0,
2469.0,4051.0,1935.0,2035.0,5560009.0,
2468.0,4053.0,1932.0,2038.0,5560013.0,
2467.0,4050.0,1930.0,2042.0,5560017.0,
2467.0,4053.0,1929.0,2047.0,5560021.0,
2468.0,4050.0,1930.0,2049.0,5560025.0,
2469.0,4052.0,1927.0,2054.0,5560028.0,
2469.0,4052.0,1929.0,2059.0,5560032.0,
2467.0,4051.0,1931.0,2063.0,5560036.0,
2466.0,4051.0,1934.0,2068.0,5560040.0,
2466.0,4052.0,1942.0,2075.0,5560044.0,
2468.0,4051.0,1946.0,2077.0,5560048.0,
2468.0,4052.0,1951.0,2081.0,5560051.0,
2467.0,4053.0,1956.0,2086.0,5560055.0,
2464.0,4052.0,1967.0,2091.0,5560059.0,
2465.0,4050.0,1980.0,2092.0,5560063.0,
2469.0,4051.0,1991.0,2096.0,5560067.0,
2469.0,4051.0,2002.0,2099.0,5560071.0,
2468.0,4051.0,2016.0,2106.0,5560074.0,
2466.0,4052.0,2030.0,2109.0,5560078.0,
2466.0,4051.0,2043.0,2111.0,5560082.0,
2468.0,4050.0,2060.0,2112.0,5560086.0,
2470.0,4051.0,2079.0,2115.0,5560090.0,
2467.0,4053.0,2094.0,2119.0,5560093.0,
2466.0,4051.0,2115.0,2121.0,5560097.0,
2465.0,4051.0,2135.0,2120.0,5560101.0,
2468.0,4051.0,2147.0,2121.0,5560105.0,
2469.0,4051.0,2165.0,2122.0,5560109.0,
2467.0,4050.0,2182.0,2123.0,5560113.0,
2467.0,4049.0,2197.0,2123.0,5560116.0,
2466.0,4051.0,2210.0,2126.0,5560120.0,
2467.0,4051.0,2225.0,2124.0,5560124.0,
2469.0,4050.0,2242.0,2122.0,5560129.0,
2468.0,4050.0,2253.0,2122.0,5560133.0,
2466.0,4051.0,2264.0,2123.0,5560137.0,
2465.0,4050.0,2275.0,2121.0,5560141.0,
2467.0,4050.0,2284.0,2120.0,5560144.0,
2469.0,4052.0,2293.0,2120.0,5560148.0,
2468.0,4052.0,2303.0,2122.0,5560152.0,
2467.0,4050.0,2310.0,2119.0,5560156.0,
2464.0,4050.0,2315.0,2118.0,5560160.0,
2467.0,4050.0,2324.0,2116.0,5560164.0,
2470.0,4050.0,2326.0,2117.0,5560167.0,
2470.0,4050.0,2329.0,2114.0,5560171.0,
2468.0,4051.0,2330.0,2117.0,5560175.0,
2466.0,4051.0,2328.0,2117.0,5560179.0,
2466.0,4052.0,2322.0,2114.0,5560183.0,
2469.0,4050.0,2319.0,2113.0,5560187.0,
2470.0,4052.0,2314.0,2112.0,5560191.0,
2467.0,4051.0,2307.0,2110.0,5560194.0,
2465.0,4051.0,2302.0,2112.0,5560198.0,
2466.0,4051.0,2295.0,2107.0,5560202.0,
2468.0,4050.0,2286.0,2105.0,5560206.0,
2470.0,4051.0,2279.0,2104.0,5560210.0,
2468.0,4050.0,2271.0,2103.0,5560213.0,
2467.0,4052.0,2265.0,2099.0,5560217.0,
2464.0,4051.0,2257.0,2099.0,5560221.0,
2468.0,4051.0,2249.0,2098.0,5560225.0,
2470.0,4051.0,2244.0,2094.0,5560229.0,
2472.0,4051.0,2235.0,2088.0,5560233.0,
2467.0,4050.0,2231.0,2088.0,5560236.0,
2466.0,4050.0,2225.0,2084.0,5560240.0,
2467.0,4053.0,2221.0,2083.0,5560244.0,
2469.0,4051.0,2218.0,2082.0,5560248.0,
2470.0,4052.0,2211.0,2082.0,5560252.0,
2467.0,4052.0,2206.0,2080.0,5560255.0,
2465.0,4053.0,2198.0,2078.0,5560259.0,
2466.0,4052.0,2193.0,2074.0,5560263.0,
2468.0,4050.0,2189.0,2073.0,5560267.0,
2470.0,4050.0,2180.0,2069.0,5560271.0,
2468.0,4050.0,2173.0,2067.0,5560275.0,
2466.0,4051.0,2168.0,2064.0,5560279.0,
2467.0,4051.0,2162.0,2062.0,5560283.0,
2468.0,4049.0,2154.0,2060.0,5560287.0,
2469.0,4051.0,2147.0,2058.0,5560291.0,
2468.0,4050.0,2139.0,2056.0,5560295.0,
2466.0,4053.0,2133.0,2056.0,5560299.0,
2467.0,4051.0,2125.0,2058.0,5560303.0,
2469.0,4051.0,2117.0,2054.0,5560308.0,
2470.0,4055.0,2108.0,2051.0,5560311.0,
2467.0,4053.0,2104.0,2052.0,5560315.0,
2466.0,4052.0,2094.0,2052.0,5560319.0,
2466.0,4050.0,2087.0,2051.0,5560323.0,
2469.0,4051.0,2082.0,2048.0,5560327.0,
2470.0,4049.0,2076.0,2052.0,5560331.0,
2468.0,4049.0,2063.0,2050.0,5560334.0,
2465.0,4050.0,2059.0,2051.0,5560338.0,
2467.0,4051.0,2050.0,2053.0,5560342.0,
2469.0,4050.0,2046.0,2051.0,5560346.0,
2469.0,4051.0,2039.0,2050.0,5560350.0,
2469.0,4050.0,2034.0,2048.0,5560354.0,
2467.0,4050.0,2032.0,2049.0,5560357.0,
2466.0,4051.0,2026.0,2049.0,5560361.0,
2468.0,4050.0,2028.0,2051.0,5560365.0,
2470.0,4051.0,2026.0,2048.0,5560369.0,
2470.0,4052.0,2027.0,2049.0,5560373.0,
2465.0,4048.0,2030.0,2049.0,5560377.0,
2465.0,4050.0,2028.0,2047.0,5560380.0,
2467.0,4051.0,2030.0,2049.0,5560385.0,
2470.0,4050.0,2034.0,2047.0,5560389.0,
2470.0,4051.0,2032.0,2048.0,5560393.0,
2467.0,4050.0,2030.0,2045.0,5560397.0,
2465.0,4052.0,2031.0,2049.0,5560401.0,
2467.0,4050.0,2029.0,2046.0,5560404.0,
2469.0,4053.0,2029.0,2047.0,5560408.0,
2471.0,4051.0,2028.0,2048.0,5560412.0,
2467.0,4053.0,2029.0,2048.0,5560416.0,
2466.0,4049.0,2031.0,2043.0,5560420.0,
2468.0,4051.0,2033.0,2045.0,5560423.0,
2471.0,4053.0,2033.0,2042.0,5560428.0,
2470.0,4051.0,2031.0,2042.0,5560432.0,
2468.0,4052.0,2034.0,2040.0,5560435.0,
2466.0,4051.0,2037.0,2039.0,5560439.0,
2467.0,4052.0,2033.0,2038.0,5560443.0,
2469.0,4052.0,2038.0,2037.0,5560447.0,
2469.0,4051.0,2039.0,2039.0,5560451.0,
2469.0,4051.0,2037.0,2037.0,5560455.0,
2466.0,4051.0,2039.0,2035.0,5560458.0,
2466.0,4051.0,2038.0,2034.0,5560462.0,
2469.0,4052.0,2036.0,2032.0,5560466.0,
2471.0,4051.0,2034.0,2028.0,5560470.0,
2469.0,4052.0,2034.0,2033.0,5560474.0,
2466.0,4053.0,2031.0,2029.0,5560477.0,
2466.0,4047.0,2031.0,2026.0,5560481.0,
2468.0,4050.0,2028.0,2028.0,5560485.0,
2470.0,4051.0,2027.0,2028.0,5560489.0,
2469.0,4051.0,2026.0,2024.0,5560493.0,
2467.0,4052.0,2023.0,2024.0,5560497.0,
2466.0,4050.0,2023.0,2023.0,5560500.0,
2468.0,4051.0,2021.0,2023.0,5560504.0,
2470.0,4050.0,2019.0,2023.0,5560508.0,
2470.0,4050.0,2017.0,2022.0,5560512.0,
2468.0,4052.0,2017.0,2021.0,5560516.0,
2467.0,4050.0,2014.0,2020.0,5560520.0,
2468.0,4051.0,2011.0,2019.0,5560523.0,
2469.0,4050.0,2010.0,2021.0,5560527.0,
2471.0,4051.0,2006.0,2015.0,5560531.0,
2467.0,4051.0,2004.0,2017.0,5560535.0,
2466.0,4050.0,2001.0,2019.0,5560539.0,
2468.0,4051.0,1999.0,2017.0,5560543.0,
2469.0,4050.0,1994.0,2015.0,5560546.0,
2471.0,4052.0,1992.0,2016.0,5560550.0,
2468.0,4050.0,1988.0,2016.0,5560554.0,
2470.0,4052.0,1980.0,2016.0,5560558.0,
2467.0,4051.0,1983.0,2015.0,5560562.0,
2470.0,4051.0,1976.0,2016.0,5560565.0,
2470.0,4050.0,1971.0,2013.0,5560569.0,
2469.0,4049.0,1968.0,2020.0,5560573.0,
2467.0,4051.0,1964.0,2015.0,5560577.0,
2467.0,4053.0,1959.0,2015.0,5560581.0,
2469.0,4050.0,1956.0,2014.0,5560585.0,
2470.0,4051.0,1953.0,2017.0,5560588.0,
2470.0,4050.0,1953.0,2015.0,5560592.0,
2468.0,4051.0,1949.0,2016.0,5560596.0,
2467.0,4051.0,1952.0,2015.0,5560600.0,
2468.0,4052.0,1951.0,2018.0,5560604.0,
2471.0,4051.0,1948.0,2016.0,5560607.0,
2471.0,4051.0,1950.0,2020.0,5560611.0,
2469.0,4053.0,1948.0,2018.0,5560615.0,
2468.0,4050.0,1947.0,2017.0,5560619.0,
2468.0,4052.0,1946.0,2019.0,5560623.0,
2469.0,4048.0,1941.0,2019.0,5560627.0,
2470.0,4052.0,1936.0,2018.0,5560630.0,
2469.0,4052.0,1930.0,2022.0,5560634.0,
2467.0,4051.0,1930.0,2020.0,5560638.0,
2467.0,4050.0,1922.0,2021.0,5560642.0,
2470.0,4052.0,1920.0,2025.0,5560646.0,
2470.0,4050.0,1913.0,2024.0,5560650.0,
2469.0,4052.0,1914.0,2027.0,5560653.0,
2467.0,4051.0,1913.0,2028.0,5560657.0,
2470.0,4050.0,1912.0,2030.0,5560661.0,
2468.0,4050.0,1912.0,2032.0,5560665.0,
2470.0,4051.0,1913.0,2036.0,5560669.0,
2469.0,4050.0,1912.0,2036.0,5560673.0,
2468.0,4052.0,1918.0,2044.0,5560677.0,
2466.0,4050.0,1920.0,2044.0,5560680.0,
2467.0,4051.0,1923.0,2052.0,5560684.0,
2471.0,4052.0,1931.0,2052.0,5560688.0,
2470.0,4051.0,1938.0,2056.0,5560692.0,
2475.0,4052.0,1942.0,2062.0,5560696.0,
2467.0,4048.0,1952.0,2063.0,5560699.0,
2468.0,4053.0,1954.0,2070.0,5560703.0,
2469.0,4052.0,1970.0,2073.0,5560707.0,
2469.0,4050.0,1980.0,2075.0,5560711.0,
2468.0,4051.0,1995.0,2080.0,5560715.0,
2467.0,4051.0,2009.0,2084.0,5560719.0,
2466.0,4052.0,2025.0,2088.0,5560723.0,
2469.0,4051.0,2045.0,2091.0,5560726.0,
2470.0,4052.0,2063.0,2094.0,5560730.0,
2468.0,4051.0,2080.0,2095.0,5560734.0,
2466.0,4050.0,2095.0,2098.0,5560738.0,
2466.0,4050.0,2114.0,2102.0,5560742.0,
2467.0,4050.0,2131.0,2106.0,5560745.0,
2470.0,4051.0,2150.0,2108.0,5560749.0,
2470.0,4051.0,2169.0,2109.0,5560753.0,
2468.0,4050.0,2190.0,2111.0,5560757.0,
2466.0,4050.0,2209.0,2115.0,5560761.0,
2468.0,4051.0,2227.0,2117.0,5560765.0,
2470.0,4049.0,2245.0,2118.0,5560768.0,
2470.0,4049.0,2265.0,2119.0,5560772.0,
2468.0,4051.0,2282.0,2125.0,5560776.0,
2467.0,4051.0,2297.0,2123.0,5560780.0,
2468.0,4053.0,2316.0,2127.0,5560784.0,
2469.0,4052.0,2329.0,2125.0,5560788.0,
2470.0,4052.0,2339.0,2127.0,5560791.0,
2466.0,4052.0,2352.0,2125.0,5560795.0,
2467.0,4050.0,2365.0,2126.0,5560799.0,
2466.0,4050.0,2374.0,2126.0,5560803.0,
2470.0,4051.0,2382.0,2129.0,5560807.0,
2471.0,4051.0,2385.0,2125.0,5560811.0,
2468.0,4049.0,2391.0,2126.0,5560814.0,
2467.0,4049.0,2394.0,2122.0,5560818.0,
2466.0,4049.0,2394.0,2122.0,5560822.0,
2468.0,4051.0,2393.0,2122.0,5560826.0,
2471.0,4050.0,2392.0,2121.0,5560830.0,
2469.0,4050.0,2393.0,2120.0,5560834.0,
2466.0,4050.0,2387.0,2117.0,5560837.0,
2467.0,4050.0,2381.0,2116.0,5560841.0,
2468.0,4051.0,2376.0,2115.0,5560845.0,
2471.0,4053.0,2372.0,2114.0,5560849.0,
2469.0,4052.0,2366.0,2111.0,5560853.0,
2468.0,4052.0,2364.0,2110.0,5560856.0,
2465.0,4051.0,2356.0,2107.0,5560860.0,
2467.0,4052.0,2352.0,2104.0,5560864.0,
2470.0,4053.0,2347.0,2098.0,5560868.0,
2471.0,4051.0,2337.0,2100.0,5560872.0,
2468.0,4052.0,2333.0,2096.0,5560875.0,
2466.0,4050.0,2323.0,2091.0,5560879.0,
2468.0,4053.0,2315.0,2092.0,5560883.0,
2470.0,4052.0,2305.0,2088.0,5560887.0,
2471.0,4051.0,2293.0,2086.0,5560891.0,
2470.0,4051.0,2285.0,2081.0,5560895.0,
2467.0,4051.0,2275.0,2079.0,5560898.0,
2470.0,4051.0,2265.0,2076.0,5560902.0,
2469.0,4051.0,2255.0,2073.0,5560906.0,
2471.0,4050.0,2241.0,2071.0,5560910.0,
2469.0,4050.0,2233.0,2068.0,5560914.0,
2468.0,4049.0,2224.0,2066.0,5560917.0,
2466.0,4052.0,2210.0,2063.0,5560921.0,
2467.0,4051.0,2200.0,2060.0,5560925.0,
2470.0,4054.0,2187.0,2060.0,5560929.0,
2469.0,4051.0,2178.0,2059.0,5560933.0,
2469.0,4052.0,2165.0,2057.0,5560936.0,
2468.0,4050.0,2154.0,2055.0,5560940.0,
2469.0,4053.0,2143.0,2053.0,5560944.0,
2471.0,4049.0,2131.0,2050.0,5560948.0,
2470.0,4050.0,2121.0,2049.0,5560952.0,
2468.0,4050.0,2109.0,2046.0,5560956.0,
2466.0,4051.0,2104.0,2050.0,5560960.0,
2467.0,4050.0,2090.0,2048.0,5560963.0,
2471.0,4050.0,2083.0,2046.0,5560967.0,
2470.0,4052.0,2077.0,2048.0,5560971.0,
2468.0,4051.0,2067.0,2046.0,5560975.0,
2468.0,4052.0,2067.0,2047.0,5560979.0,
2467.0,4050.0,2057.0,2043.0,5560983.0,
2469.0,4052.0,2050.0,2045.0,5560986.0,
2471.0,4050.0,2048.0,2042.0,5560990.0,
2469.0,4053.0,2044.0,2042.0,5560994.0,
2467.0,4050.0,2043.0,2042.0,5560998.0,
2467.0,4050.0,2043.0,2042.0,5561002.0,
2469.0,4049.0,2047.0,2042.0,5561005.0,
2470.0,4052.0,2048.0,2041.0,5561009.0,
2471.0,4051.0,2046.0,2040.0,5561013.0,
2467.0,4050.0,2054.0,2038.0,5561017.0,
2466.0,4052.0,2056.0,2041.0,5561021.0,
2468.0,4050.0,2060.0,2037.0,5561025.0,
2471.0,4052.0,2063.0,2038.0,5561028.0,
2469.0,4051.0,2066.0,2036.0,5561032.0,
2468.0,4052.0,2068.0,2034.0,5561036.0,
2466.0,4050.0,2070.0,2031.0,5561040.0,
2467.0,4052.0,2074.0,2034.0,5561044.0,
2470.0,4049.0,2078.0,2031.0,5561048.0,
2470.0,4051.0,2083.0,2027.0,5561051.0,
2469.0,4050.0,2085.0,2030.0,5561055.0,
2466.0,4052.0,2084.0,2028.0,5561059.0,
2467.0,4050.0,2086.0,2026.0,5561063.0,
2470.0,4052.0,2088.0,2025.0,5561067.0,
2471.0,4051.0,2091.0,2024.0,5561071.0,
2469.0,4052.0,2092.0,2027.0,5561074.0,
2467.0,4052.0,2094.0,2027.0,5561078.0,
2468.0,4052.0,2098.0,2025.0,5561082.0,
2469.0,4051.0,2097.0,2025.0,5561086.0,
2471.0,4052.0,2097.0,2026.0,5561090.0,
2469.0,4051.0,2101.0,2024.0,5561094.0,
2467.0,4052.0,2100.0,2020.0,5561097.0,
2467.0,4050.0,2099.0,2023.0,5561101.0,
2469.0,4051.0,2098.0,2023.0,5561105.0,
2470.0,4051.0,2099.0,2019.0,5561109.0,
2470.0,4052.0,2097.0,2019.0,5561113.0,
2467.0,4050.0,2096.0,2019.0,5561117.0,
2466.0,4052.0,2089.0,2019.0,5561120.0,
2467.0,4051.0,2086.0,2017.0,5561124.0,
2468.0,4050.0,2085.0,2016.0,5561128.0,
2470.0,4052.0,2079.0,2016.0,5561132.0,
2468.0,4050.0,2072.0,2015.0,5561136.0,
2466.0,4051.0,2066.0,2016.0,5561140.0,
2467.0,4050.0,2057.0,2016.0,5561143.0,
2469.0,4052.0,2052.0,2015.0,5561147.0,
2470.0,4050.0,2044.0,2014.0,5561151.0,
2468.0,4052.0,2037.0,2018.0,5561155.0,
2466.0,4050.0,2028.0,2013.0,5561159.0,
2467.0,4052.0,2020.0,2015.0,5561163.0,
2469.0,4050.0,2017.0,2013.0,5561166.0,
2470.0,4052.0,2008.0,2015.0,5561170.0,
2468.0,4051.0,2005.0,2012.0,5561174.0,
2467.0,4052.0,1997.0,2010.0,5561178.0,
2466.0,4050.0,1995.0,2012.0,5561182.0,
2469.0,4052.0,1995.0,2013.0,5561185.0,
2471.0,4051.0,1995.0,2012.0,5561189.0,
2470.0,4052.0,1993.0,2011.0,5561193.0,
2468.0,4050.0,1991.0,2010.0,5561197.0,
2466.0,4051.0,1987.0,2011.0,5561201.0,
2467.0,4050.0,1983.0,2011.0,5561205.0,
2470.0,4051.0,1982.0,2015.0,5561208.0,
2470.0,4051.0,1979.0,2009.0,5561212.0,
2468.0,4051.0,1973.0,2010.0,5561216.0,
2466.0,4052.0,1968.0,2008.0,5561220.0,
2467.0,4050.0,1964.0,2008.0,5561224.0,
2469.0,4052.0,1960.0,2010.0,5561228.0,
2470.0,4050.0,1952.0,2010.0,5561232.0,
2469.0,4052.0,1947.0,2010.0,5561235.0,
2467.0,4052.0,1943.0,2013.0,5561239.0,
2467.0,4050.0,1937.0,2010.0,5561243.0,
2469.0,4050.0,1929.0,2006.0,5561247.0,
2470.0,4050.0,1926.0,2010.0,5561251.0,
2469.0,4051.0,1923.0,2011.0,5561254.0,
2466.0,4050.0,1923.0,2009.0,5561258.0,
2469.0,4052.0,1922.0,2009.0,5561262.0,
2468.0,4050.0,1916.0,2009.0,5561266.0,
2470.0,4053.0,1917.0,2011.0,5561270.0,
2469.0,4050.0,1920.0,2009.0,5561273.0,
2467.0,4051.0,1920.0,2008.0,5561277.0,
2466.0,4052.0,1920.0,2008.0,5561281.0,
2469.0,4052.0,1920.0,2008.0,5561285.0,
2469.0,4051.0,1923.0,2006.0,5561289.0,
2470.0,4052.0,1922.0,2009.0,5561293.0,
2468.0,4050.0,1925.0,2006.0,5561297.0,
2466.0,4052.0,1926.0,2009.0,5561300.0,
2467.0,4050.0,1928.0,2008.0,5561304.0,
2469.0,4052.0,1926.0,2008.0,5561308.0,
2469.0,4049.0,1928.0,2007.0,5561312.0,
2467.0,4051.0,1931.0,2011.0,5561316.0,
2467.0,4050.0,1936.0,2010.0,5561319.0,
2466.0,4050.0,1940.0,2014.0,5561323.0,
2470.0,4052.0,1941.0,2017.0,5561327.0,
2470.0,4051.0,1943.0,2017.0,5561331.0,
2469.0,4051.0,1943.0,2022.0,5561335.0,
2466.0,4051.0,1946.0,2024.0,5561338.0,
2467.0,4051.0,1946.0,2028.0,5561342.0,
2467.0,4052.0,1947.0,2033.0,5561346.0,
2470.0,4050.0,1945.0,2034.0,5561350.0,
2469.0,4051.0,1948.0,2039.0,5561354.0,
2466.0,4051.0,1950.0,2041.0,5561358.0,
2467.0,4051.0,1952.0,2044.0,5561362.0,
2468.0,4052.0,1951.0,2051.0,5561366.0,
2470.0,4050.0,1952.0,2055.0,5561370.0,
2471.0,4052.0,1954.0,2061.0,5561374.0,
2467.0,4050.0,1957.0,2065.0,5561377.0,
2466.0,4049.0,1961.0,2067.0,5561381.0,
2467.0,4050.0,1961.0,2071.0,5561385.0,
2469.0,4051.0,1970.0,2074.0,5561389.0,
2469.0,4051.0,1971.0,2081.0,5561393.0,
2467.0,4050.0,1977.0,2084.0,5561397.0,
2467.0,4052.0,1983.0,2089.0,5561401.0,
2467.0,4049.0,1994.0,2089.0,5561404.0,
2469.0,4051.0,2010.0,2095.0,5561408.0,
2470.0,4052.0,2023.0,2097.0,5561412.0,
2468.0,4051.0,2032.0,2098.0,5561416.0,
2467.0,4051.0,2048.0,2103.0,5561420.0,
2468.0,4052.0,2061.0,2104.0,5561423.0,
2468.0,4053.0,2077.0,2104.0,5561427.0,
2470.0,4052.0,2093.0,2105.0,5561431.0,
2470.0,4053.0,2113.0,2106.0,5561435.0,
2466.0,4051.0,2132.0,2107.0,5561439.0,
2466.0,4051.0,2158.0,2108.0,5561443.0,
2469.0,4052.0,2180.0,2108.0,5561446.0,
2470.0,4052.0,2204.0,2111.0,5561450.0,
2469.0,4050.0,2229.0,2109.0,5561454.0,
2467.0,4050.0,2250.0,2108.0,5561458.0,
2465.0,4053.0,2277.0,2112.0,5561462.0,
2468.0,4050.0,2297.0,2112.0,5561466.0,
2470.0,4050.0,2318.0,2111.0,5561470.0,
2468.0,4051.0,2337.0,2110.0,5561474.0,
2467.0,4050.0,2356.0,2111.0,5561478.0,
2466.0,4051.0,2366.0,2110.0,5561482.0,
2469.0,4049.0,2382.0,2111.0,5561486.0,
2470.0,4050.0,2393.0,2108.0,5561490.0,
2469.0,4050.0,2404.0,2112.0,5561493.0,
2467.0,4051.0,2413.0,2110.0,5561497.0,
2466.0,4050.0,2418.0,2106.0,5561501.0,
2468.0,4050.0,2426.0,2108.0,5561505.0,
2470.0,4051.0,2429.0,2109.0,5561509.0,
2470.0,4050.0,2429.0,2107.0,5561513.0,
2468.0,4050.0,2427.0,2103.0,5561516.0,
2466.0,4050.0,2426.0,2104.0,5561520.0,
2467.0,4050.0,2420.0,2100.0,5561524.0,
2470.0,4049.0,2414.0,2100.0,5561528.0,
2470.0,4051.0,2409.0,2098.0,5561532.0,
2467.0,4051.0,2402.0,2099.0,5561536.0,
2466.0,4050.0,2391.0,2095.0,5561539.0,
2467.0,4050.0,2384.0,2095.0,5561543.0,
2470.0,4050.0,2374.0,2093.0,5561547.0,
2471.0,4050.0,2369.0,2087.0,5561551.0,
2468.0,4051.0,2358.0,2087.0,5561555.0,
2467.0,4050.0,2351.0,2086.0,5561559.0,
2467.0,4053.0,2338.0,2082.0,5561562.0,
2468.0,4049.0,2329.0,2081.0,5561566.0,
2470.0,4050.0,2321.0,2079.0,5561570.0,
2470.0,4048.0,2311.0,2078.0,5561574.0,
2467.0,4052.0,2301.0,2074.0,5561577.0,
2466.0,4050.0,2290.0,2072.0,5561581.0,
2467.0,4052.0,2279.0,2070.0,5561585.0,
2471.0,4050.0,2270.0,2070.0,5561589.0,
2470.0,4051.0,2258.0,2065.0,5561593.0,
2466.0,4050.0,2250.0,2063.0,5561597.0,
2465.0,4049.0,2242.0,2061.0,5561600.0,
2466.0,4051.0,2233.0,2060.0,5561604.0,
2468.0,4050.0,2228.0,2057.0,5561608.0,
2471.0,4051.0,2218.0,2052.0,5561612.0,
2469.0,4051.0,2207.0,2052.0,5561616.0,
2463.0,4050.0,2198.0,2052.0,5561620.0,
2467.0,4051.0,2188.0,2049.0,5561623.0,
2469.0,4050.0,2179.0,2047.0,5561627.0,
2470.0,4052.0,2171.0,2050.0,5561631.0,
2468.0,4051.0,2161.0,2045.0,5561635.0,
2465.0,4049.0,2152.0,2045.0,5561639.0,
2467.0,4052.0,2141.0,2042.0,5561642.0,
2466.0,4051.0,2130.0,2040.0,5561646.0,
2470.0,4051.0,2117.0,2039.0,5561650.0,
2469.0,4052.0,2110.0,2039.0,5561654.0,
2466.0,4049.0,2103.0,2039.0,5561658.0,
2466.0,4052.0,2092.0,2036.0,5561661.0,
2468.0,4052.0,2087.0,2038.0,5561665.0,
2470.0,4052.0,2080.0,2038.0,5561669.0,
2469.0,4050.0,2076.0,2033.0,5561673.0,
2469.0,4051.0,2069.0,2034.0,5561677.0,
2467.0,4050.0,2064.0,2033.0,5561681.0,
2466.0,4053.0,2055.0,2032.0,5561684.0,
2469.0,4051.0,2047.0,2033.0,5561688.0,
2470.0,4051.0,2045.0,2029.0,5561692.0,
2468.0,4050.0,2038.0,2028.0,5561696.0,
2466.0,4052.0,2037.0,2029.0,5561699.0,
2466.0,4050.0,2033.0,2027.0,5561703.0,
2471.0,4052.0,2031.0,2030.0,5561707.0,
2468.0,4052.0,2032.0,2031.0,5561711.0,
2469.0,4052.0,2029.0,2032.0,5561715.0,
2466.0,4049.0,2031.0,2029.0,5561719.0,
2466.0,4052.0,2030.0,2031.0,5561723.0,
2468.0,4051.0,2032.0,2030.0,5561726.0,
2470.0,4050.0,2035.0,2028.0,5561730.0,
2469.0,4051.0,2038.0,2032.0,5561734.0,
2467.0,4050.0,2042.0,2030.0,5561738.0,
2467.0,4052.0,2047.0,2031.0,5561742.0,
2468.0,4051.0,2057.0,2030.0,5561745.0,
2470.0,4049.0,2061.0,2031.0,5561749.0,
2470.0,4050.0,2072.0,2030.0,5561753.0,
2468.0,4050.0,2084.0,2031.0,5561757.0,
2467.0,4050.0,2089.0,2030.0,5561761.0,
2467.0,4053.0,2099.0,2029.0,5561764.0,
2470.0,4052.0,2107.0,2028.0,5561768.0,
2469.0,4051.0,2114.0,2031.0,5561772.0,
2467.0,4050.0,2122.0,2027.0,5561776.0,
2467.0,4052.0,2122.0,2030.0,5561780.0,
2466.0,4051.0,2124.0,2027.0,5561784.0,
2471.0,4052.0,2126.0,2026.0,5561787.0,
2471.0,4051.0,2125.0,2024.0,5561791.0,
2469.0,4051.0,2126.0,2026.0,5561795.0,
2466.0,4051.0,2126.0,2024.0,5561799.0,
2466.0,4048.0,2122.0,2020.0,5561803.0,
2469.0,4052.0,2120.0,2018.0,5561806.0,
2471.0,4052.0,2115.0,2025.0,5561810.0,
2470.0,4052.0,2112.0,2024.0,5561814.0,
2465.0,4052.0,2108.0,2018.0,5561818.0,
2467.0,4051.0,2106.0,2019.0,5561822.0,
2468.0,4049.0,2101.0,2017.0,5561826.0,
2470.0,4051.0,2095.0,2019.0,5561829.0,
2470.0,4048.0,2093.0,2013.0,5561833.0,
2468.0,4052.0,2087.0,2014.0,5561837.0,
2466.0,4051.0,2084.0,2011.0,5561841.0,
2467.0,4051.0,2082.0,2015.0,5561845.0,
2470.0,4051.0,2078.0,2010.0,5561848.0,
2470.0,4052.0,2074.0,2011.0,5561852.0,
2467.0,4050.0,2071.0,2011.0,5561856.0,
2467.0,4051.0,2066.0,2008.0,5561860.0,
2467.0,4052.0,2060.0,2012.0,5561864.0,
2468.0,4049.0,2059.0,2010.0,5561868.0,
2470.0,4052.0,2051.0,2009.0,5561871.0,
2468.0,4050.0,2046.0,2009.0,5561875.0,
2469.0,4052.0,2041.0,2009.0,5561879.0,
2465.0,4050.0,2035.0,2006.0,5561883.0,
2468.0,4052.0,2028.0,2010.0,5561887.0,
2470.0,4050.0,2022.0,2006.0,5561891.0,
2470.0,4051.0,2014.0,2005.0,5561894.0,
2467.0,4048.0,2008.0,2006.0,5561898.0,
2466.0,4051.0,2002.0,2006.0,5561902.0,
2469.0,4051.0,1994.0,2005.0,5561906.0,
2470.0,4049.0,1989.0,2003.0,5561910.0,
2469.0,4050.0,1984.0,2006.0,5561914.0,
2468.0,4050.0,1979.0,2001.0,5561918.0,
2466.0,4052.0,1972.0,2002.0,5561921.0,
2470.0,4051.0,1965.0,2001.0,5561925.0,
2470.0,4052.0,1962.0,2003.0,5561929.0,
2469.0,4050.0,1958.0,2001.0,5561933.0,
2467.0,4050.0,1951.0,2002.0,5561937.0,
2467.0,4050.0,1953.0,2000.0,5561941.0,
2466.0,4052.0,1948.0,2000.0,5561944.0,
2471.0,4051.0,1944.0,2003.0,5561948.0,
2470.0,4050.0,1942.0,2000.0,5561952.0,
2468.0,4051.0,1941.0,2001.0,5561956.0,
2467.0,4051.0,1939.0,2002.0,5561960.0,
2467.0,4051.0,1937.0,2001.0,5561964.0,
2469.0,4050.0,1937.0,2000.0,5561967.0,
2470.0,4051.0,1934.0,2000.0,5561971.0,
2469.0,4052.0,1934.0,2002.0,5561975.0,
2464.0,4051.0,1934.0,1998.0,5561979.0,
2466.0,4052.0,1934.0,1999.0,5561983.0,
2468.0,4050.0,1932.0,1998.0,5561987.0,
2471.0,4051.0,1932.0,1999.0,5561990.0,
2469.0,4051.0,1932.0,1998.0,5561994.0,
2467.0,4052.0,1933.0,1998.0,5561998.0,
2466.0,4050.0,1928.0,1997.0,5562002.0,
2469.0,4052.0,1930.0,1998.0,5562006.0,
2470.0,4049.0,1929.0,1996.0,5562009.0,
2471.0,4051.0,1929.0,1998.0,5562013.0,
2466.0,4052.0,1929.0,1998.0,5562017.0,
2466.0,4051.0,1930.0,1995.0,5562021.0,
2467.0,4051.0,1932.0,1997.0,5562025.0,
2469.0,4049.0,1937.0,2001.0,5562028.0,
2470.0,4052.0,1940.0,2001.0,5562032.0,
2468.0,4051.0,1942.0,2003.0,5562036.0,
2465.0,4050.0,1944.0,2002.0,5562040.0,
2467.0,4051.0,1948.0,2004.0,5562044.0,
2465.0,4052.0,1950.0,2004.0,5562047.0,
2471.0,4051.0,1953.0,2007.0,5562051.0,
2469.0,4050.0,1956.0,2007.0,5562055.0,
2466.0,4050.0,1958.0,2006.0,5562059.0,
2467.0,4052.0,1957.0,2008.0,5562063.0,
2468.0,4050.0,1958.0,2008.0,5562067.0,
2471.0,4053.0,1958.0,2012.0,5562070.0,
2469.0,4051.0,1958.0,2011.0,5562074.0,
2466.0,4050.0,1957.0,2014.0,5562078.0,
2467.0,4051.0,1957.0,2018.0,5562082.0,
2467.0,4051.0,1956.0,2019.0,5562086.0,
2470.0,4053.0,1954.0,2024.0,5562090.0,
2470.0,4050.0,1957.0,2027.0,5562093.0,
2467.0,4050.0,1960.0,2029.0,5562097.0,
2466.0,4051.0,1961.0,2034.0,5562101.0,
2468.0,4052.0,1964.0,2038.0,5562105.0,
2471.0,4051.0,1972.0,2040.0,5562109.0,
2470.0,4051.0,1979.0,2045.0,5562113.0,
2467.0,4051.0,1985.0,2049.0,5562117.0,
2466.0,4048.0,1992.0,2053.0,5562121.0,
2467.0,4053.0,1997.0,2060.0,5562124.0,
2469.0,4050.0,2003.0,2062.0,5562128.0,
2470.0,4052.0,2011.0,2068.0,5562132.0,
2468.0,4050.0,2020.0,2068.0,5562136.0,
2466.0,4052.0,2027.0,2072.0,5562140.0,
2467.0,4052.0,2041.0,2074.0,5562144.0,
2469.0,4051.0,2048.0,2080.0,5562147.0,
2471.0,4051.0,2066.0,2079.0,5562151.0,
2469.0,4053.0,2080.0,2083.0,5562155.0,
2467.0,4052.0,2101.0,2087.0,5562159.0,
2468.0,4052.0,2117.0,2089.0,5562163.0,
2469.0,4052.0,2140.0,2091.0,5562167.0,
2469.0,4052.0,2161.0,2091.0,5562170.0,
2468.0,4050.0,2189.0,2094.0,5562174.0,
2467.0,4051.0,2209.0,2097.0,5562178.0,
2465.0,4051.0,2233.0,2096.0,5562182.0,
2468.0,4050.0,2253.0,2101.0,5562186.0,
2470.0,4051.0,2278.0,2100.0,5562190.0,
2470.0,4051.0,2301.0,2102.0,5562193.0,
2470.0,4049.0,2320.0,2101.0,5562197.0,
2466.0,4050.0,2341.0,2105.0,5562201.0,
2467.0,4050.0,2360.0,2104.0,5562205.0,
2469.0,4050.0,2377.0,2106.0,5562209.0,
2469.0,4051.0,2393.0,2106.0,5562213.0,
2467.0,4051.0,2410.0,2107.0,5562217.0,
2466.0,4049.0,2419.0,2106.0,5562221.0,
2467.0,4051.0,2434.0,2107.0,5562225.0,
2470.0,4049.0,2443.0,2105.0,5562229.0,
2469.0,4051.0,2447.0,2104.0,5562233.0,
2468.0,4050.0,2452.0,2104.0,5562237.0,
2468.0,4050.0,2451.0,2103.0,5562241.0,
2467.0,4050.0,2453.0,2101.0,5562245.0,
2471.0,4049.0,2452.0,2103.0,5562248.0,
2470.0,4053.0,2452.0,2104.0,5562252.0,
2469.0,4050.0,2449.0,2100.0,5562256.0,
2465.0,4050.0,2447.0,2100.0,5562260.0,
2467.0,4050.0,2449.0,2097.0,5562264.0,
2471.0,4049.0,2442.0,2098.0,5562267.0,
2470.0,4051.0,2438.0,2095.0,5562271.0,
2469.0,4050.0,2437.0,2091.0,5562275.0,
2466.0,4050.0,2427.0,2093.0,5562279.0,
2467.0,4053.0,2420.0,2091.0,5562283.0,
2469.0,4052.0,2413.0,2090.0,5562287.0,
2470.0,4052.0,2404.0,2087.0,5562290.0,
2469.0,4051.0,2398.0,2083.0,5562294.0,
2467.0,4052.0,2387.0,2079.0,5562298.0,
2467.0,4050.0,2383.0,2079.0,5562302.0,
2468.0,4050.0,2374.0,2076.0,5562306.0,
2471.0,4050.0,2363.0,2071.0,5562310.0,
2470.0,4050.0,2352.0,2068.0,5562313.0,
2468.0,4050.0,2340.0,2065.0,5562317.0,
2465.0,4050.0,2329.0,2064.0,5562321.0,
2468.0,4050.0,2319.0,2061.0,5562325.0,
2469.0,4050.0,2310.0,2059.0,5562329.0,
2471.0,4050.0,2301.0,2058.0,5562333.0,
2468.0,4049.0,2293.0,2056.0,5562336.0,
2467.0,4050.0,2283.0,2054.0,5562340.0,
2467.0,4051.0,2276.0,2052.0,5562344.0,
2470.0,4051.0,2266.0,2050.0,5562348.0,
2470.0,4049.0,2259.0,2048.0,5562352.0,
2469.0,4050.0,2249.0,2051.0,5562355.0,
2466.0,4050.0,2242.0,2047.0,5562359.0,
2467.0,4051.0,2229.0,2044.0,5562363.0,
2469.0,4052.0,2223.0,2045.0,5562367.0,
2470.0,4052.0,2214.0,2046.0,5562371.0,
2469.0,4052.0,2204.0,2042.0,5562374.0,
2468.0,4051.0,2196.0,2041.0,5562378.0,
2466.0,4052.0,2191.0,2041.0,5562382.0,
2468.0,4051.0,2185.0,2039.0,5562386.0,
2470.0,4050.0,2180.0,2039.0,5562390.0,
2469.0,4050.0,2177.0,2037.0,5562394.0,
2467.0,4050.0,2165.0,2037.0,5562397.0,
2466.0,4052.0,2160.0,2037.0,5562401.0,
2467.0,4051.0,2147.0,2037.0,5562405.0,
2470.0,4052.0,2140.0,2036.0,5562409.0,
2470.0,4050.0,2134.0,2035.0,5562413.0,
2467.0,4051.0,2124.0,2038.0,5562417.0,
2467.0,4051.0,2119.0,2037.0,5562421.0,
2468.0,4051.0,2109.0,2035.0,5562425.0,
2470.0,4050.0,2104.0,2036.0,5562430.0,
2469.0,4050.0,2100.0,2036.0,5562434.0,
2467.0,4049.0,2095.0,2036.0,5562438.0,
2468.0,4050.0,2095.0,2035.0,5562443.0,
2469.0,4051.0,2096.0,2036.0,5562447.0,
2471.0,4049.0,2098.0,2035.0,5562451.0,
2469.0,4051.0,2100.0,2035.0,5562455.0,
2467.0,4050.0,2103.0,2034.0,5562459.0,
2467.0,4052.0,2106.0,2035.0,5562463.0,
2468.0,4050.0,2109.0,2034.0,5562467.0,
2469.0,4053.0,2111.0,2035.0,5562470.0,
2469.0,4052.0,2112.0,2035.0,5562474.0,
2467.0,4050.0,2111.0,2034.0,5562478.0,
2466.0,4050.0,2108.0,2033.0,5562482.0,
2467.0,4052.0,2109.0,2036.0,5562486.0,
2470.0,4051.0,2106.0,2034.0,5562490.0,
2470.0,4052.0,2108.0,2032.0,5562494.0,
2469.0,4050.0,2105.0,2035.0,5562497.0,
2466.0,4050.0,2104.0,2033.0,5562501.0,
2468.0,4051.0,2103.0,2033.0,5562505.0,
2469.0,4051.0,2108.0,2033.0,5562509.0,
2469.0,4049.0,2105.0,2033.0,5562513.0,
2468.0,4053.0,2102.0,2030.0,5562517.0,
2462.0,4050.0,2101.0,2031.0,5562521.0,
2467.0,4052.0,2102.0,2031.0,5562524.0,
2470.0,4051.0,2101.0,2031.0,5562528.0,
2471.0,4050.0,2100.0,2028.0,5562532.0,
2469.0,4052.0,2099.0,2030.0,5562536.0,
2467.0,4050.0,2100.0,2029.0,5562540.0,
2467.0,4052.0,2101.0,2027.0,5562544.0,
2470.0,4050.0,2100.0,2028.0,5562547.0,
2470.0,4047.0,2102.0,2026.0,5562551.0,
2468.0,4052.0,2101.0,2029.0,5562555.0,
2466.0,4050.0,2101.0,2024.0,5562559.0,
2466.0,4051.0,2097.0,2022.0,5562563.0,
2469.0,4050.0,2093.0,2023.0,5562567.0,
2470.0,4053.0,2087.0,2018.0,5562571.0,
2470.0,4051.0,2082.0,2019.0,5562575.0,
2467.0,4052.0,2077.0,2018.0,5562578.0,
2466.0,4051.0,2071.0,2014.0,5562582.0,
2468.0,4051.0,2064.0,2014.0,5562586.0,
2470.0,4051.0,2057.0,2013.0,5562590.0,
2469.0,4052.0,2051.0,2012.0,5562594.0,
2467.0,4049.0,2045.0,2010.0,5562597.0,
2465.0,4051.0,2041.0,2010.0,5562601.0,
2464.0,4052.0,2038.0,2007.0,5562605.0,
2470.0,4052.0,2034.0,2009.0,5562609.0,
2469.0,4051.0,2027.0,2007.0,5562613.0,
2468.0,4051.0,2026.0,2008.0,5562616.0,
2466.0,4052.0,2019.0,2008.0,5562620.0,
2467.0,4052.0,2015.0,2006.0,5562624.0,
2468.0,4051.0,2014.0,2005.0,5562628.0,
2471.0,4052.0,2012.0,2007.0,5562632.0,
2468.0,4050.0,2011.0,2003.0,5562636.0,
2468.0,4052.0,2012.0,2005.0,5562639.0,
2467.0,4051.0,2012.0,2002.0,5562643.0,
2470.0,4051.0,2009.0,2003.0,5562647.0,
2471.0,4051.0,2006.0,2004.0,5562651.0,
2473.0,4050.0,2006.0,2003.0,5562655.0,
2467.0,4051.0,2002.0,2002.0,5562658.0,
2466.0,4049.0,2002.0,2000.0,5562662.0,
2469.0,4054.0,1998.0,2001.0,5562666.0,
2470.0,4051.0,1997.0,2002.0,5562670.0,
2469.0,4054.0,1994.0,2003.0,5562674.0,
2468.0,4050.0,1990.0,1999.0,5562678.0,
2466.0,4052.0,1986.0,2002.0,5562681.0,
2468.0,4051.0,1983.0,2000.0,5562685.0,
2470.0,4052.0,1975.0,1999.0,5562689.0,
2470.0,4051.0,1969.0,1996.0,5562693.0,
2468.0,4050.0,1964.0,1995.0,5562697.0,
2466.0,4051.0,1960.0,1998.0,5562701.0,
2466.0,4049.0,1951.0,1994.0,5562705.0,
2470.0,4053.0,1944.0,1998.0,5562708.0,
2470.0,4050.0,1939.0,1995.0,5562712.0,
2469.0,4051.0,1932.0,1998.0,5562716.0,
2465.0,4050.0,1926.0,1997.0,5562720.0,
2466.0,4052.0,1923.0,1995.0,5562724.0,
2469.0,4050.0,1923.0,1996.0,5562727.0,
2470.0,4051.0,1921.0,1994.0,5562731.0,
2469.0,4052.0,1920.0,1996.0,5562735.0,
2467.0,4050.0,1919.0,1996.0,5562739.0,
2466.0,4052.0,1917.0,1997.0,5562743.0,
2468.0,4050.0,1916.0,1997.0,5562747.0,
2471.0,4051.0,1915.0,1999.0,5562750.0,
2469.0,4051.0,1914.0,2000.0,5562754.0,
2468.0,4051.0,1911.0,1998.0,5562758.0,
2466.0,4050.0,1914.0,1999.0,5562762.0,
2467.0,4052.0,1912.0,2001.0,5562766.0,
2471.0,4050.0,1912.0,1999.0,5562770.0,
2470.0,4051.0,1909.0,2002.0,5562773.0,
2468.0,4050.0,1908.0,2001.0,5562777.0,
2466.0,4050.0,1909.0,2001.0,5562781.0,
2467.0,4051.0,1907.0,2000.0,5562785.0,
2470.0,4051.0,1902.0,2001.0,5562789.0,
2471.0,4051.0,1900.0,2002.0,5562792.0,
2468.0,4052.0,1898.0,2001.0,5562796.0,
2466.0,4050.0,1895.0,2007.0,5562800.0,
2467.0,4051.0,1891.0,2005.0,5562804.0,
2469.0,4051.0,1888.0,2003.0,5562808.0,
2470.0,4052.0,1889.0,2009.0,5562812.0,
2469.0,4049.0,1883.0,2009.0,5562816.0,
2466.0,4051.0,1884.0,2013.0,5562820.0,
2466.0,4051.0,1884.0,2013.0,5562823.0,
2468.0,4052.0,1885.0,2015.0,5562827.0,
2470.0,4051.0,1885.0,2015.0,5562831.0,
2469.0,4053.0,1886.0,2021.0,5562835.0,
2467.0,4051.0,1885.0,2023.0,5562839.0,
2466.0,4052.0,1888.0,2029.0,5562843.0,
2469.0,4051.0,1892.0,2033.0,5562846.0,
2470.0,4051.0,1891.0,2037.0,5562850.0,
2470.0,4052.0,1898.0,2037.0,5562854.0,
2468.0,4053.0,1900.0,2043.0,5562858.0,
2466.0,4050.0,1904.0,2047.0,5562862.0,
2468.0,4051.0,1906.0,2048.0,5562866.0,
2469.0,4050.0,1909.0,2051.0,5562869.0,
2469.0,4051.0,1915.0,2053.0,5562873.0,
2467.0,4051.0,1918.0,2060.0,5562877.0,
2466.0,4050.0,1926.0,2059.0,5562881.0,
2468.0,4051.0,1936.0,2066.0,5562885.0,
2470.0,4051.0,1946.0,2069.0,5562889.0,
2469.0,4051.0,1958.0,2072.0,5562892.0,
2469.0,4050.0,1972.0,2072.0,5562896.0,
2466.0,4052.0,1985.0,2076.0,5562900.0,
2466.0,4051.0,2003.0,2079.0,5562904.0,
2469.0,4052.0,2019.0,2083.0,5562908.0,
2471.0,4050.0,2041.0,2080.0,5562912.0,
2469.0,4052.0,2055.0,2085.0,5562915.0,
2467.0,4050.0,2077.0,2082.0,5562919.0,
2466.0,4050.0,2099.0,2088.0,5562923.0,
2468.0,4052.0,2113.0,2089.0,5562927.0,
2470.0,4050.0,2133.0,2090.0,5562931.0,
2469.0,4051.0,2154.0,2091.0,5562935.0,
2467.0,4051.0,2172.0,2092.0,5562939.0,
2466.0,4050.0,2191.0,2089.0,5562942.0,
2467.0,4052.0,2209.0,2090.0,5562946.0,
2470.0,4051.0,2227.0,2094.0,5562950.0,
2470.0,4053.0,2244.0,2093.0,5562954.0,
2467.0,4052.0,2260.0,2093.0,5562958.0,
2466.0,4052.0,2278.0,2094.0,5562961.0,
2467.0,4052.0,2290.0,2093.0,5562965.0,
2470.0,4050.0,2305.0,2093.0,5562969.0,
2471.0,4052.0,2313.0,2096.0,5562973.0,
2469.0,4052.0,2321.0,2093.0,5562977.0,
2467.0,4053.0,2328.0,2092.0,5562981.0,
2467.0,4052.0,2336.0,2092.0,5562985.0,
2469.0,4052.0,2341.0,2093.0,5562988.0,
2470.0,4050.0,2348.0,2093.0,5562992.0,
2470.0,4049.0,2351.0,2087.0,5562996.0,
2467.0,4050.0,2352.0,2087.0,5563000.0,
2466.0,4050.0,2348.0,2085.0,5563004.0,
2468.0,4050.0,2344.0,2085.0,5563007.0,
2470.0,4052.0,2340.0,2082.0,5563011.0,
2470.0,4050.0,2335.0,2082.0,5563015.0,
2467.0,4051.0,2326.0,2079.0,5563019.0,
2466.0,4050.0,2322.0,2079.0,5563023.0,
2468.0,4051.0,2314.0,2075.0,5563027.0,
2470.0,4050.0,2308.0,2071.0,5563031.0,
2470.0,4050.0,2301.0,2072.0,5563034.0,
2467.0,4052.0,2290.0,2068.0,5563038.0,
2466.0,4052.0,2279.0,2067.0,5563042.0,
2468.0,4052.0,2268.0,2064.0,5563046.0,
2470.0,4051.0,2260.0,2062.0,5563050.0,
2470.0,4052.0,2247.0,2060.0,5563054.0,
2468.0,4050.0,2233.0,2059.0,5563057.0,
2466.0,4050.0,2223.0,2054.0,5563061.0,
2467.0,4049.0,2209.0,2051.0,5563065.0,
2469.0,4051.0,2195.0,2047.0,5563069.0,
2470.0,4052.0,2181.0,2047.0,5563073.0,
2469.0,4050.0,2170.0,2043.0,5563077.0,
2466.0,4049.0,2160.0,2039.0,5563080.0,
2466.0,4052.0,2152.0,2040.0,5563084.0,
2470.0,4051.0,2137.0,2037.0,5563088.0,
2470.0,4051.0,2125.0,2035.0,5563092.0,
2468.0,4050.0,2113.0,2034.0,5563096.0,
2468.0,4051.0,2103.0,2033.0,5563100.0,
2466.0,4051.0,2087.0,2031.0,5563103.0,
2472.0,4050.0,2078.0,2032.0,5563107.0,
2470.0,4052.0,2063.0,2032.0,5563111.0,
2470.0,4051.0,2054.0,2030.0,5563115.0,
2468.0,4052.0,2049.0,2033.0,5563119.0,
2466.0,4050.0,2044.0,2029.0,5563123.0,
2468.0,4053.0,2033.0,2033.0,5563126.0,
2469.0,4051.0,2032.0,2032.0,5563130.0,
2470.0,4050.0,2024.0,2031.0,5563134.0,
2468.0,4051.0,2018.0,2033.0,5563138.0,
2467.0,4052.0,2011.0,2034.0,5563142.0,
2467.0,4050.0,2005.0,2033.0,5563146.0,
2470.0,4051.0,1996.0,2036.0,5563149.0,
2469.0,4050.0,1990.0,2036.0,5563153.0,
2468.0,4052.0,1983.0,2037.0,5563157.0,
2467.0,4048.0,1978.0,2038.0,5563161.0,
2467.0,4052.0,1975.0,2039.0,5563165.0,
2470.0,4051.0,1971.0,2040.0,5563169.0,
2471.0,4052.0,1968.0,2041.0,5563172.0,
2468.0,4049.0,1966.0,2040.0,5563176.0,
2467.0,4051.0,1960.0,2041.0,5563180.0,
2467.0,4050.0,1956.0,2041.0,5563184.0,
2470.0,4051.0,1953.0,2043.0,5563188.0,
2470.0,4051.0,1956.0,2041.0,5563192.0,
2469.0,4052.0,1956.0,2042.0,5563195.0,
2468.0,4051.0,1956.0,2040.0,5563199.0,
2467.0,4050.0,1962.0,2040.0,5563203.0,
2468.0,4051.0,1967.0,2040.0,5563207.0,
2471.0,4051.0,1975.0,2039.0,5563211.0,
2470.0,4054.0,1978.0,2040.0,5563214.0,
2467.0,4051.0,1983.0,2038.0,5563218.0,
2466.0,4052.0,1985.0,2037.0,5563222.0,
2467.0,4052.0,1990.0,2035.0,5563226.0,
2470.0,4051.0,1995.0,2033.0,5563230.0,
2470.0,4052.0,1998.0,2035.0,5563234.0,
2468.0,4050.0,2002.0,2035.0,5563237.0,
2466.0,4051.0,2004.0,2034.0,5563241.0,
2468.0,4052.0,2007.0,2035.0,5563245.0,
2469.0,4050.0,2007.0,2033.0,5563249.0,
2471.0,4049.0,2008.0,2032.0,5563253.0,
2468.0,4049.0,2010.0,2029.0,5563257.0,
2466.0,4052.0,2013.0,2033.0,5563261.0,
2466.0,4050.0,2016.0,2030.0,5563265.0,
2469.0,4052.0,2018.0,2032.0,5563269.0,
2471.0,4050.0,2022.0,2030.0,5563272.0,
2469.0,4053.0,2021.0,2029.0,5563276.0,
2466.0,4052.0,2019.0,2027.0,5563280.0,
2467.0,4051.0,2021.0,2031.0,5563284.0,
2469.0,4050.0,2019.0,2029.0,5563288.0,
2470.0,4050.0,2024.0,2031.0,5563292.0,
2469.0,4050.0,2022.0,2027.0,5563295.0,
2467.0,4051.0,2022.0,2029.0,5563299.0,
2466.0,4053.0,2021.0,2027.0,5563303.0,
2468.0,4052.0,2017.0,2027.0,5563307.0,
2467.0,4051.0,2016.0,2026.0,5563311.0,
2470.0,4053.0,2011.0,2023.0,5563315.0,
2467.0,4051.0,2009.0,2021.0,5563318.0,
2466.0,4050.0,2004.0,2022.0,5563322.0,
2466.0,4052.0,1991.0,2022.0,5563326.0,
2469.0,4050.0,1991.0,2018.0,5563330.0,
2470.0,4051.0,1982.0,2020.0,5563334.0,
2468.0,4051.0,1976.0,2018.0,5563338.0,
2465.0,4052.0,1972.0,2018.0,5563341.0,
2467.0,4050.0,1963.0,2020.0,5563345.0,
2469.0,4052.0,1959.0,2022.0,5563349.0,
2470.0,4052.0,1952.0,2019.0,5563353.0,
2469.0,4051.0,1949.0,2016.0,5563357.0,
2467.0,4050.0,1946.0,2015.0,5563360.0,
2467.0,4051.0,1943.0,2013.0,5563364.0,
2469.0,4051.0,1939.0,2014.0,5563368.0,
2470.0,4051.0,1936.0,2011.0,5563372.0,
2469.0,4052.0,1932.0,2012.0,5563376.0,
2466.0,4051.0,1929.0,2009.0,5563380.0,
2466.0,4051.0,1925.0,2010.0,5563384.0,
2469.0,4051.0,1922.0,2006.0,5563387.0,
2469.0,4051.0,1925.0,2010.0,5563391.0,
2469.0,4051.0,1922.0,2004.0,5563395.0,
2467.0,4052.0,1921.0,2004.0,5563399.0,
2467.0,4050.0,1918.0,2004.0,5563403.0,
2467.0,4051.0,1917.0,2005.0,5563406.0,
2470.0,4051.0,1916.0,2006.0,5563410.0,
2469.0,4051.0,1913.0,2003.0,5563414.0,
2467.0,4052.0,1913.0,2006.0,5563418.0,
2466.0,4048.0,1918.0,2005.0,5563422.0,
2467.0,4051.0,1917.0,2006.0,5563426.0,
2468.0,4049.0,1919.0,2003.0,5563429.0,
2470.0,4050.0,1917.0,2002.0,5563433.0,
2468.0,4050.0,1917.0,2003.0,5563437.0,
2466.0,4051.0,1911.0,2004.0,5563441.0,
2467.0,4051.0,1911.0,2003.0,5563445.0,
2468.0,4050.0,1910.0,2003.0,5563449.0,
2470.0,4050.0,1908.0,2003.0,5563452.0,
2468.0,4051.0,1906.0,2002.0,5563456.0,
2467.0,4051.0,1906.0,2001.0,5563460.0,
2467.0,4050.0,1907.0,2000.0,5563464.0,
2469.0,4052.0,1905.0,2002.0,5563468.0,
2470.0,4051.0,1900.0,1998.0,5563472.0,
2468.0,4052.0,1901.0,2000.0,5563476.0,
2467.0,4050.0,1903.0,1999.0,5563480.0,
2465.0,4052.0,1899.0,1999.0,5563484.0,
2468.0,4050.0,1897.0,1997.0,5563488.0,
2470.0,4052.0,1898.0,2000.0,5563492.0,
2469.0,4051.0,1900.0,1996.0,5563495.0,
2467.0,4051.0,1899.0,1998.0,5563500.0,
2466.0,4050.0,1902.0,1999.0,5563504.0,
2469.0,4051.0,1905.0,2003.0,5563508.0,
2471.0,4051.0,1901.0,2001.0,5563513.0,
2468.0,4051.0,1901.0,2000.0,5563517.0,
2466.0,4051.0,1897.0,2005.0,5563521.0,
2467.0,4051.0,1895.0,2003.0,5563525.0,
2469.0,4052.0,1889.0,2006.0,5563529.0,
2470.0,4051.0,1886.0,2006.0,5563533.0,
2468.0,4051.0,1879.0,2008.0,5563537.0,
2466.0,4050.0,1878.0,2010.0,5563540.0,
2466.0,4051.0,1872.0,2011.0,5563545.0,
2468.0,4052.0,1871.0,2012.0,5563549.0,
2470.0,4052.0,1867.0,2015.0,5563553.0,
2468.0,4049.0,1868.0,2017.0,5563557.0,
2466.0,4052.0,1865.0,2019.0,5563561.0,
2467.0,4050.0,1866.0,2021.0,5563565.0,
2470.0,4052.0,1865.0,2026.0,5563569.0,
2471.0,4050.0,1865.0,2029.0,5563573.0,
2468.0,4052.0,1864.0,2034.0,5563576.0,
2466.0,4054.0,1868.0,2035.0,5563580.0,
2468.0,4052.0,1870.0,2040.0,5563584.0,
2468.0,4050.0,1877.0,2042.0,5563588.0,
2470.0,4051.0,1884.0,2049.0,5563592.0,
2470.0,4049.0,1891.0,2051.0,5563596.0,
2468.0,4052.0,1897.0,2057.0,5563599.0,
2466.0,4051.0,1909.0,2063.0,5563603.0,
2468.0,4053.0,1921.0,2063.0,5563607.0,
2470.0,4050.0,1931.0,2067.0,5563611.0,
2470.0,4052.0,1942.0,2071.0,5563615.0,
2467.0,4051.0,1954.0,2073.0,5563618.0,
2466.0,4049.0,1969.0,2074.0,5563622.0,
2468.0,4052.0,1977.0,2080.0,5563626.0,
2470.0,4050.0,1992.0,2081.0,5563630.0,
2470.0,4052.0,2010.0,2083.0,5563634.0,
2468.0,4050.0,2029.0,2084.0,5563638.0,
2467.0,4051.0,2049.0,2087.0,5563641.0,
2467.0,4050.0,2066.0,2087.0,5563645.0,
2470.0,4052.0,2081.0,2090.0,5563649.0,
2470.0,4051.0,2097.0,2091.0,5563653.0,
2468.0,4051.0,2112.0,2090.0,5563657.0,
2468.0,4052.0,2126.0,2092.0,5563661.0,
2466.0,4053.0,2144.0,2093.0,5563664.0,
2469.0,4050.0,2159.0,2092.0,5563668.0,
2470.0,4052.0,2167.0,2094.0,5563672.0,
2468.0,4050.0,2179.0,2092.0,5563676.0,
2467.0,4050.0,2189.0,2094.0,5563680.0,
2467.0,4051.0,2202.0,2093.0,5563684.0,
2468.0,4050.0,2211.0,2093.0,5563687.0,
2470.0,4052.0,2223.0,2094.0,5563691.0,
2470.0,4050.0,2229.0,2094.0,5563695.0,
2470.0,4051.0,2236.0,2091.0,5563699.0,
2467.0,4050.0,2244.0,2091.0,5563703.0,
2468.0,4051.0,2247.0,2090.0,5563706.0,
2470.0,4050.0,2250.0,2088.0,5563710.0,
2469.0,4051.0,2256.0,2090.0,5563714.0,
2467.0,4051.0,2252.0,2088.0,5563718.0,
2466.0,4051.0,2255.0,2087.0,5563722.0,
2468.0,4051.0,2256.0,2087.0,5563726.0,
2468.0,4052.0,2258.0,2086.0,5563729.0,
2471.0,4050.0,2261.0,2084.0,5563733.0,
2469.0,4052.0,2260.0,2084.0,5563737.0,
2466.0,4051.0,2259.0,2079.0,5563741.0,
2467.0,4051.0,2257.0,2081.0,5563745.0,
2469.0,4050.0,2253.0,2077.0,5563749.0,
2470.0,4051.0,2247.0,2076.0,5563752.0,
2468.0,4049.0,2244.0,2076.0,5563756.0,
2466.0,4049.0,2235.0,2074.0,5563760.0,
2467.0,4051.0,2227.0,2073.0,5563764.0,
2469.0,4051.0,2218.0,2070.0,5563768.0,
2471.0,4051.0,2208.0,2069.0,5563772.0,
2469.0,4051.0,2198.0,2069.0,5563776.0,
2466.0,4050.0,2186.0,2065.0,5563779.0,
2466.0,4050.0,2179.0,2062.0,5563783.0,
2469.0,4052.0,2166.0,2063.0,5563787.0,
2472.0,4051.0,2157.0,2060.0,5563791.0,
2469.0,4051.0,2145.0,2060.0,5563795.0,
2467.0,4052.0,2139.0,2060.0,5563799.0,
2466.0,4053.0,2128.0,2056.0,5563802.0,
2467.0,4052.0,2118.0,2058.0,5563806.0,
2470.0,4053.0,2110.0,2055.0,5563810.0,
2471.0,4051.0,2104.0,2053.0,5563814.0,
2468.0,4050.0,2098.0,2050.0,5563818.0,
2466.0,4050.0,2096.0,2052.0,5563822.0,
2466.0,4051.0,2084.0,2051.0,5563825.0,
2471.0,4051.0,2079.0,2049.0,5563829.0,
2470.0,4052.0,2075.0,2050.0,5563833.0,
2469.0,4051.0,2071.0,2048.0,5563837.0,
2466.0,4051.0,2065.0,2047.0,5563841.0,
2466.0,4050.0,2062.0,2046.0,5563844.0,
2469.0,4052.0,2058.0,2044.0,5563848.0,
2470.0,4049.0,2053.0,2039.0,5563852.0,
2470.0,4050.0,2047.0,2039.0,5563856.0,
2467.0,4052.0,2042.0,2043.0,5563860.0,
2466.0,4051.0,2033.0,2038.0,5563864.0,
2468.0,4052.0,2027.0,2040.0,5563867.0,
2471.0,4051.0,2022.0,2039.0,5563871.0,
2470.0,4050.0,2015.0,2038.0,5563875.0,
2468.0,4051.0,2012.0,2038.0,5563879.0,
2466.0,4050.0,2005.0,2037.0,5563883.0,
2468.0,4052.0,1997.0,2037.0,5563887.0,
2472.0,4051.0,1991.0,2035.0,5563890.0,
2471.0,4049.0,1989.0,2035.0,5563894.0,
2467.0,4051.0,1984.0,2036.0,5563898.0,
2467.0,4050.0,1980.0,2038.0,5563902.0,
2468.0,4049.0,1983.0,2036.0,5563906.0,
2469.0,4050.0,1978.0,2040.0,5563909.0,
2471.0,4051.0,1977.0,2037.0,5563913.0,
2470.0,4050.0,1973.0,2033.0,5563917.0,
2467.0,4051.0,1976.0,2036.0,5563921.0,
2467.0,4050.0,1977.0,2035.0,5563925.0,
2470.0,4051.0,1978.0,2040.0,5563928.0,
2470.0,4052.0,1977.0,2039.0,5563932.0,
2469.0,4052.0,1981.0,2039.0,5563936.0,
2466.0,4051.0,1981.0,2039.0,5563940.0,
2464.0,4051.0,1979.0,2039.0,5563944.0,
2468.0,4049.0,1985.0,2037.0,5563947.0,
2471.0,4050.0,1992.0,2036.0,5563951.0,
2469.0,4051.0,1997.0,2038.0,5563955.0,
2467.0,4050.0,1997.0,2036.0,5563959.0,
2467.0,4051.0,2001.0,2038.0,5563963.0,
2469.0,4051.0,2001.0,2036.0,5563967.0,
2469.0,4052.0,2005.0,2039.0,5563970.0,
2470.0,4050.0,2005.0,2037.0,5563974.0,
2468.0,4050.0,2007.0,2038.0,5563978.0,
2466.0,4052.0,2008.0,2036.0,5563982.0,
2467.0,4050.0,2014.0,2034.0,5563986.0,
2469.0,4051.0,2017.0,2036.0,5563990.0,
2471.0,4049.0,2021.0,2032.0,5563994.0,
2469.0,4052.0,2021.0,2033.0,5563997.0,
2466.0,4050.0,2024.0,2028.0,5564001.0,
2467.0,4049.0,2027.0,2029.0,5564005.0,
2469.0,4051.0,2029.0,2030.0,5564009.0,
2471.0,4050.0,2032.0,2025.0,5564013.0,
2468.0,4052.0,2031.0,2029.0,5564016.0,
2466.0,4050.0,2030.0,2027.0,5564020.0,
2466.0,4051.0,2029.0,2024.0,5564024.0,
2469.0,4052.0,2029.0,2024.0,5564028.0,
2470.0,4050.0,2031.0,2022.0,5564032.0,
2470.0,4050.0,2032.0,2023.0,5564035.0,
2467.0,4050.0,2030.0,2021.0,5564039.0,
2467.0,4052.0,2031.0,2018.0,5564043.0,
2468.0,4050.0,2028.0,2017.0,5564047.0,
2470.0,4050.0,2025.0,2018.0,5564051.0,
2470.0,4050.0,2028.0,2015.0,5564054.0,
2468.0,4051.0,2022.0,2014.0,5564058.0,
2466.0,4052.0,2022.0,2015.0,5564062.0,
2468.0,4050.0,2017.0,2011.0,5564066.0,
2469.0,4052.0,2011.0,2014.0,5564070.0,
2470.0,4049.0,2009.0,2012.0,5564074.0,
2467.0,4052.0,2001.0,2011.0,5564077.0,
2466.0,4048.0,1995.0,2010.0,5564081.0,
2467.0,4049.0,1988.0,2010.0,5564085.0,
2470.0,4053.0,1983.0,2011.0,5564089.0,
2470.0,4051.0,1972.0,2013.0,5564093.0,
2468.0,4052.0,1968.0,2011.0,5564096.0,
2466.0,4051.0,1962.0,2013.0,5564100.0,
2466.0,4052.0,1953.0,2011.0,5564104.0,
2468.0,4051.0,1949.0,2008.0,5564108.0,
2471.0,4052.0,1943.0,2012.0,5564112.0,
2470.0,4050.0,1938.0,2007.0,5564116.0,
2466.0,4052.0,1934.0,2011.0,5564119.0,
2467.0,4052.0,1927.0,2008.0,5564123.0,
2469.0,4051.0,1924.0,2010.0,5564127.0,
2470.0,4050.0,1917.0,2006.0,5564131.0,
2470.0,4051.0,1913.0,2006.0,5564135.0,
2467.0,4050.0,1908.0,2003.0,5564139.0,
2466.0,4052.0,1904.0,2006.0,5564143.0,
2468.0,4052.0,1895.0,2003.0,5564147.0,
2468.0,4051.0,1893.0,2007.0,5564150.0,
2471.0,4052.0,1890.0,2007.0,5564154.0,
2468.0,4052.0,1888.0,2004.0,5564158.0,
2466.0,4051.0,1882.0,2006.0,5564162.0,
2467.0,4051.0,1877.0,2003.0,5564166.0,
2469.0,4051.0,1877.0,2002.0,5564170.0,
2470.0,4052.0,1872.0,2005.0,5564173.0,
2468.0,4049.0,1871.0,2003.0,5564177.0,
2466.0,4050.0,1868.0,2004.0,5564181.0,
2467.0,4052.0,1869.0,2005.0,5564185.0,
2468.0,4051.0,1868.0,2006.0,5564189.0,
2471.0,4052.0,1865.0,2007.0,5564192.0,
2468.0,4052.0,1868.0,2007.0,5564196.0,
2466.0,4052.0,1866.0,2008.0,5564200.0,
2466.0,4051.0,1867.0,2007.0,5564204.0,
2469.0,4051.0,1869.0,2009.0,5564208.0,
2470.0,4051.0,1872.0,2008.0,5564211.0,
2470.0,4052.0,1878.0,2010.0,5564215.0,
2468.0,4051.0,1879.0,2009.0,5564219.0,
2466.0,4051.0,1885.0,2007.0,5564223.0,
2468.0,4051.0,1885.0,2010.0,5564227.0,
2470.0,4050.0,1886.0,2008.0,5564231.0,
2470.0,4052.0,1891.0,2008.0,5564234.0,
2467.0,4052.0,1892.0,2008.0,5564238.0,
2466.0,4051.0,1893.0,2010.0,5564242.0,
2468.0,4050.0,1899.0,2007.0,5564246.0,
2470.0,4051.0,1900.0,2008.0,5564250.0,
2470.0,4052.0,1901.0,2008.0,5564254.0,
2468.0,4050.0,1900.0,2008.0,5564258.0,
2466.0,4052.0,1900.0,2011.0,5564262.0,
2467.0,4051.0,1898.0,2011.0,5564265.0,
2469.0,4051.0,1901.0,2010.0,5564269.0,
2470.0,4052.0,1899.0,2011.0,5564273.0,
2466.0,4050.0,1903.0,2012.0,5564277.0,
2466.0,4052.0,1904.0,2015.0,5564281.0,
2466.0,4049.0,1905.0,2015.0,5564284.0,
2470.0,4050.0,1906.0,2016.0,5564288.0,
2470.0,4050.0,1907.0,2018.0,5564292.0,
2470.0,4052.0,1908.0,2019.0,5564296.0,
2467.0,4049.0,1911.0,2018.0,5564300.0,
2467.0,4051.0,1909.0,2022.0,5564303.0,
2468.0,4052.0,1906.0,2024.0,5564307.0,
2471.0,4052.0,1904.0,2024.0,5564311.0,
2470.0,4051.0,1904.0,2025.0,5564315.0,
2468.0,4052.0,1897.0,2029.0,5564319.0,
2465.0,4051.0,1901.0,2029.0,5564323.0,
2468.0,4052.0,1901.0,2034.0,5564326.0,
2470.0,4052.0,1900.0,2035.0,5564330.0,
2469.0,4049.0,1901.0,2039.0,5564334.0,
2467.0,4051.0,1902.0,2041.0,5564338.0,
2466.0,4051.0,1903.0,2044.0,5564342.0,
2469.0,4052.0,1902.0,2047.0,5564345.0,
2468.0,4052.0,1904.0,2053.0,5564349.0,
2471.0,4050.0,1907.0,2055.0,5564353.0,
2469.0,4051.0,1908.0,2061.0,5564357.0,
2466.0,4049.0,1917.0,2063.0,5564361.0,
2466.0,4051.0,1925.0,2069.0,5564365.0,
2469.0,4050.0,1932.0,2071.0,5564368.0,
2470.0,4052.0,1942.0,2073.0,5564372.0,
2470.0,4052.0,1954.0,2078.0,5564376.0,
2467.0,4049.0,1967.0,2080.0,5564380.0,
2466.0,4052.0,1979.0,2085.0,5564384.0,
2469.0,4050.0,1994.0,2086.0,5564387.0,
2471.0,4050.0,2011.0,2086.0,5564391.0,
2470.0,4051.0,2021.0,2091.0,5564395.0,
2468.0,4052.0,2037.0,2092.0,5564399.0,
2466.0,4053.0,2055.0,2097.0,5564403.0,
2468.0,4052.0,2068.0,2097.0,5564407.0,
2469.0,4051.0,2085.0,2099.0,5564410.0,
2471.0,4051.0,2099.0,2099.0,5564414.0,
2468.0,4051.0,2113.0,2102.0,5564418.0,
2466.0,4050.0,2130.0,2105.0,5564422.0,
2467.0,4048.0,2148.0,2107.0,5564426.0,
2469.0,4050.0,2165.0,2108.0,5564429.0,
2470.0,4051.0,2179.0,2108.0,5564433.0,
2468.0,4052.0,2194.0,2111.0,5564437.0,
2467.0,4051.0,2209.0,2111.0,5564441.0,
2466.0,4052.0,2226.0,2109.0,5564445.0,
2470.0,4049.0,2239.0,2109.0,5564449.0,
2470.0,4051.0,2250.0,2109.0,5564452.0,
2468.0,4050.0,2260.0,2110.0,5564456.0,
2467.0,4053.0,2267.0,2111.0,5564460.0,
2467.0,4052.0,2280.0,2111.0,5564464.0,
2468.0,4051.0,2284.0,2108.0,5564468.0,
2472.0,4052.0,2289.0,2109.0,5564471.0,
2469.0,4050.0,2289.0,2107.0,5564475.0,
2467.0,4049.0,2293.0,2107.0,5564480.0,
2468.0,4052.0,2291.0,2105.0,5564484.0,
2470.0,4053.0,2288.0,2104.0,5564488.0,
2471.0,4051.0,2287.0,2102.0,5564492.0,
2470.0,4052.0,2283.0,2101.0,5564495.0,
2468.0,4050.0,2280.0,2098.0,5564499.0,
2466.0,4050.0,2274.0,2098.0,5564503.0,
2469.0,4049.0,2269.0,2098.0,5564507.0,
2470.0,4051.0,2261.0,2095.0,5564511.0,
2470.0,4051.0,2251.0,2092.0,5564515.0,
2468.0,4050.0,2250.0,2092.0,5564518.0,
2466.0,4050.0,2240.0,2091.0,5564522.0,
2468.0,4051.0,2232.0,2087.0,5564526.0,
2470.0,4052.0,2222.0,2086.0,5564530.0,
2470.0,4051.0,2215.0,2083.0,5564534.0,
2468.0,4051.0,2198.0,2081.0,5564538.0,
2466.0,4050.0,2193.0,2081.0,5564541.0,
2467.0,4053.0,2179.0,2078.0,5564545.0,
2469.0,4052.0,2173.0,2073.0,5564549.0,
2471.0,4052.0,2163.0,2073.0,5564553.0,
2469.0,4052.0,2152.0,2067.0,5564557.0,
2467.0,4051.0,2143.0,2065.0,5564560.0,
2466.0,4050.0,2131.0,2062.0,5564564.0,
2469.0,4052.0,2120.0,2060.0,5564568.0,
2470.0,4050.0,2109.0,2058.0,5564572.0,
2469.0,4051.0,2102.0,2054.0,5564576.0,
2466.0,4051.0,2090.0,2053.0,5564580.0,
2466.0,4050.0,2081.0,2051.0,5564583.0,
2469.0,4050.0,2074.0,2051.0,5564587.0,
2470.0,4050.0,2064.0,2047.0,5564591.0,
2470.0,4052.0,2054.0,2047.0,5564595.0,
2468.0,4050.0,2050.0,2045.0,5564599.0,
2466.0,4052.0,2045.0,2045.0,5564603.0,
2468.0,4051.0,2035.0,2042.0,5564607.0,
2470.0,4051.0,2029.0,2046.0,5564611.0,
2470.0,4050.0,2024.0,2042.0,5564615.0,
2468.0,4050.0,2019.0,2041.0,5564619.0,
2467.0,4052.0,2016.0,2045.0,5564623.0,
2468.0,4049.0,2012.0,2041.0,5564627.0,
2470.0,4050.0,2008.0,2043.0,5564631.0,
2470.0,4050.0,2005.0,2046.0,5564636.0,
2469.0,4051.0,2002.0,2044.0,5564640.0,
2466.0,4052.0,2000.0,2045.0,5564644.0,
2467.0,4050.0,1995.0,2045.0,5564648.0,
2470.0,4052.0,1992.0,2044.0,5564651.0,
2469.0,4052.0,1992.0,2044.0,5564655.0,
2468.0,4050.0,1990.0,2045.0,5564659.0,
2466.0,4051.0,1985.0,2045.0,5564663.0,
2468.0,4050.0,1984.0,2045.0,5564667.0,
2470.0,4051.0,1983.0,2044.0,5564671.0,
2470.0,4050.0,1983.0,2041.0,5564674.0,
2467.0,4051.0,1982.0,2043.0,5564678.0,
2467.0,4050.0,1983.0,2043.0,5564682.0,
2468.0,4051.0,1986.0,2043.0,5564686.0,
2469.0,4051.0,1989.0,2046.0,5564690.0,
2470.0,4052.0,1991.0,2044.0,5564693.0,
2468.0,4050.0,1997.0,2044.0,5564697.0,
2466.0,4052.0,1999.0,2042.0,5564701.0,
2466.0,4052.0,2003.0,2042.0,5564705.0,
2468.0,4052.0,2004.0,2046.0,5564709.0,
2470.0,4053.0,2006.0,2042.0,5564713.0,
2468.0,4052.0,2013.0,2042.0,5564717.0,
2467.0,4052.0,2017.0,2040.0,5564722.0,
2466.0,4052.0,2018.0,2037.0,5564726.0,
2471.0,4052.0,2023.0,2039.0,5564730.0,
2470.0,4050.0,2024.0,2037.0,5564733.0,
2469.0,4052.0,2022.0,2037.0,5564737.0,
2467.0,4050.0,2024.0,2038.0,5564741.0,
2466.0,4050.0,2024.0,2037.0,5564745.0,
2469.0,4050.0,2021.0,2036.0,5564749.0,
2471.0,4052.0,2020.0,2036.0,5564753.0,
2469.0,4049.0,2020.0,2033.0,5564756.0,
2467.0,4050.0,2017.0,2033.0,5564760.0,
2467.0,4050.0,2014.0,2032.0,5564764.0,
2468.0,4051.0,2011.0,2030.0,5564768.0,
2470.0,4050.0,2010.0,2028.0,5564772.0,
2471.0,4052.0,2008.0,2028.0,5564775.0,
2467.0,4050.0,2004.0,2030.0,5564779.0,
2466.0,4052.0,2002.0,2026.0,5564783.0,
2468.0,4050.0,1998.0,2027.0,5564787.0,
2470.0,4051.0,1995.0,2025.0,5564791.0,
2470.0,4052.0,1993.0,2023.0,5564794.0,
2468.0,4051.0,1993.0,2023.0,5564798.0,
2466.0,4051.0,1993.0,2022.0,5564802.0,
2467.0,4051.0,1988.0,2019.0,5564806.0,
2470.0,4051.0,1986.0,2021.0,5564810.0,
2470.0,4050.0,1982.0,2019.0,5564814.0,
2468.0,4050.0,1979.0,2018.0,5564817.0,
2467.0,4049.0,1975.0,2015.0,5564821.0,
2468.0,4052.0,1969.0,2019.0,5564825.0,
2470.0,4049.0,1963.0,2018.0,5564829.0,
2470.0,4052.0,1958.0,2020.0,5564833.0,
2469.0,4050.0,1952.0,2017.0,5564836.0,
2467.0,4051.0,1945.0,2019.0,5564840.0,
2467.0,4048.0,1943.0,2019.0,5564844.0,
2468.0,4053.0,1946.0,2018.0,5564848.0,
2469.0,4052.0,1944.0,2015.0,5564852.0,
2469.0,4052.0,1941.0,2018.0,5564855.0,
2467.0,4050.0,1939.0,2017.0,5564859.0,
2467.0,4052.0,1936.0,2017.0,5564863.0,
2468.0,4052.0,1936.0,2017.0,5564867.0,
2470.0,4050.0,1935.0,2016.0,5564871.0,
2470.0,4051.0,1932.0,2014.0,5564875.0,
2468.0,4049.0,1930.0,2015.0,5564879.0,
2466.0,4051.0,1925.0,2016.0,5564882.0,
2467.0,4049.0,1923.0,2016.0,5564886.0,
2471.0,4048.0,1924.0,2017.0,5564890.0,
2470.0,4051.0,1919.0,2017.0,5564894.0,
2467.0,4049.0,1918.0,2019.0,5564898.0,
2467.0,4050.0,1916.0,2017.0,5564901.0,
2468.0,4051.0,1915.0,2017.0,5564905.0,
2470.0,4051.0,1910.0,2019.0,5564909.0,
2471.0,4051.0,1904.0,2018.0,5564913.0,
2474.0,4052.0,1901.0,2016.0,5564917.0,
2466.0,4049.0,1897.0,2016.0,5564921.0,
2466.0,4053.0,1900.0,2017.0,5564924.0,
2468.0,4052.0,1897.0,2017.0,5564928.0,
2468.0,4051.0,1900.0,2017.0,5564932.0,
2470.0,4051.0,1891.0,2011.0,5564936.0,
2466.0,4051.0,1892.0,2013.0,5564940.0,
2466.0,4051.0,1893.0,2013.0,5564944.0,
2468.0,4050.0,1892.0,2013.0,5564947.0,
2470.0,4051.0,1892.0,2010.0,5564951.0,
2470.0,4052.0,1891.0,2012.0,5564955.0,
2468.0,4050.0,1888.0,2009.0,5564959.0,
2467.0,4051.0,1884.0,2012.0,5564963.0,
2468.0,4050.0,1883.0,2011.0,5564966.0,
2471.0,4052.0,1880.0,2008.0,5564970.0,
2470.0,4052.0,1880.0,2009.0,5564974.0,
2468.0,4052.0,1879.0,2011.0,5564978.0,
2466.0,4051.0,1875.0,2008.0,5564982.0,
2467.0,4051.0,1876.0,2004.0,5564986.0,
2469.0,4051.0,1875.0,2007.0,5564990.0,
2470.0,4050.0,1877.0,2004.0,5564993.0,
2469.0,4052.0,1874.0,2006.0,5564997.0,
2466.0,4050.0,1876.0,2005.0,5565001.0,
2466.0,4051.0,1875.0,2005.0,5565005.0,
2469.0,4051.0,1876.0,2002.0,5565009.0,
2471.0,4049.0,1878.0,2004.0,5565013.0,
2469.0,4051.0,1882.0,2006.0,5565017.0,
2466.0,4050.0,1884.0,2001.0,5565020.0,
2466.0,4052.0,1886.0,2005.0,5565024.0,
2469.0,4050.0,1891.0,2002.0,5565028.0,
2470.0,4052.0,1895.0,2006.0,5565032.0,
2469.0,4049.0,1900.0,2002.0,5565036.0,
2466.0,4052.0,1902.0,2005.0,5565039.0,
2467.0,4050.0,1909.0,2005.0,5565043.0,
2468.0,4052.0,1909.0,2005.0,5565047.0,
2470.0,4050.0,1912.0,2005.0,5565051.0,
2471.0,4051.0,1915.0,2007.0,5565055.0,
2470.0,4049.0,1917.0,2006.0,5565059.0,
2466.0,4051.0,1919.0,2008.0,5565062.0,
2468.0,4052.0,1922.0,2010.0,5565066.0,
2470.0,4053.0,1919.0,2009.0,5565070.0,
2470.0,4049.0,1921.0,2009.0,5565074.0,
2469.0,4048.0,1919.0,2009.0,5565078.0,
2466.0,4051.0,1920.0,2009.0,5565081.0,
2467.0,4050.0,1919.0,2013.0,5565085.0,
2469.0,4051.0,1916.0,2016.0,5565089.0,
2470.0,4050.0,1911.0,2016.0,5565093.0,
2469.0,4051.0,1910.0,2020.0,5565097.0,
2466.0,4050.0,1907.0,2021.0,5565101.0,
2467.0,4052.0,1902.0,2026.0,5565105.0,
2468.0,4050.0,1898.0,2027.0,5565109.0,
2472.0,4051.0,1895.0,2033.0,5565112.0,
2469.0,4053.0,1894.0,2033.0,5565116.0,
2467.0,4050.0,1894.0,2038.0,5565120.0,
2466.0,4051.0,1895.0,2040.0,5565124.0,
2468.0,4050.0,1894.0,2044.0,5565128.0,
2471.0,4052.0,1892.0,2050.0,5565131.0,
2471.0,4051.0,1892.0,2053.0,5565135.0,
2468.0,4052.0,1895.0,2058.0,5565139.0,
2467.0,4050.0,1894.0,2060.0,5565143.0,
2467.0,4052.0,1897.0,2063.0,5565147.0,
2470.0,4050.0,1901.0,2067.0,5565151.0,
2470.0,4051.0,1902.0,2070.0,5565154.0,
2469.0,4050.0,1906.0,2071.0,5565158.0,
2466.0,4051.0,1912.0,2075.0,5565162.0,
2467.0,4051.0,1918.0,2077.0,5565166.0,
2470.0,4050.0,1925.0,2080.0,5565170.0,
2470.0,4052.0,1934.0,2086.0,5565174.0,
2468.0,4049.0,1946.0,2088.0,5565177.0,
2467.0,4049.0,1958.0,2088.0,5565181.0,
2468.0,4051.0,1970.0,2091.0,5565185.0,
2468.0,4051.0,1983.0,2095.0,5565189.0,
2470.0,4052.0,1995.0,2098.0,5565193.0,
2468.0,4050.0,2009.0,2096.0,5565197.0,
2467.0,4053.0,2019.0,2100.0,5565200.0,
2467.0,4052.0,2032.0,2101.0,5565204.0,
2468.0,4051.0,2050.0,2103.0,5565208.0,
2470.0,4052.0,2064.0,2102.0,5565212.0,
2471.0,4050.0,2079.0,2106.0,5565216.0,
2468.0,4052.0,2094.0,2104.0,5565220.0,
2467.0,4052.0,2106.0,2105.0,5565223.0,
2469.0,4051.0,2121.0,2105.0,5565227.0,
2470.0,4051.0,2134.0,2102.0,5565231.0,
2471.0,4050.0,2149.0,2105.0,5565235.0,
2468.0,4049.0,2155.0,2104.0,5565239.0,
