EDA,Resp,PPG Finger,PPG Ear,arduino_ts,event_code
1755.0,1626.0,2135.0,2161.0,3031532.0,
1755.0,1625.0,2128.0,2158.0,3031536.0,
1756.0,1629.0,2119.0,2147.0,3031539.0,
1755.0,1626.0,2116.0,2141.0,3031543.0,
1755.0,1626.0,2108.0,2136.0,3031547.0,
1756.0,1633.0,2102.0,2128.0,3031550.0,
1755.0,1626.0,2099.0,2122.0,3031554.0,
1755.0,1625.0,2092.0,2118.0,3031557.0,
1755.0,1627.0,2088.0,2110.0,3031561.0,
1756.0,1624.0,2082.0,2107.0,3031565.0,
1755.0,1625.0,2078.0,2102.0,3031568.0,
1755.0,1625.0,2071.0,2098.0,3031572.0,
1754.0,1624.0,2069.0,2095.0,3031576.0,
1754.0,1625.0,2066.0,2096.0,3031579.0,
1754.0,1625.0,2065.0,2092.0,3031583.0,
1755.0,1625.0,2064.0,2091.0,3031587.0,
1756.0,1626.0,2059.0,2089.0,3031590.0,
1751.0,1627.0,2061.0,2085.0,3031594.0,
1756.0,1625.0,2059.0,2085.0,3031597.0,
1754.0,1626.0,2059.0,2080.0,3031601.0,
1754.0,1625.0,2056.0,2075.0,3031605.0,
1755.0,1624.0,2059.0,2073.0,3031608.0,
1755.0,1627.0,2059.0,2070.0,3031612.0,
1756.0,1624.0,2062.0,2069.0,3031616.0,
1755.0,1623.0,2064.0,2069.0,3031619.0,
1754.0,1625.0,2063.0,2066.0,3031623.0,
1755.0,1625.0,2065.0,2063.0,3031627.0,
1754.0,1625.0,2066.0,2061.0,3031630.0,
1757.0,1624.0,2065.0,2058.0,3031634.0,
1755.0,1626.0,2068.0,2057.0,3031637.0,
1756.0,1625.0,2069.0,2056.0,3031641.0,
1755.0,1625.0,2065.0,2057.0,3031645.0,
1755.0,1626.0,2066.0,2055.0,3031648.0,
1756.0,1624.0,2066.0,2054.0,3031652.0,
1756.0,1625.0,2066.0,2055.0,3031656.0,
1755.0,1625.0,2064.0,2055.0,3031659.0,
1755.0,1624.0,2063.0,2056.0,3031663.0,
1756.0,1626.0,2063.0,2057.0,3031667.0,
1755.0,1625.0,2061.0,2058.0,3031670.0,
1756.0,1624.0,2059.0,2057.0,3031674.0,
1755.0,1627.0,2059.0,2054.0,3031677.0,
1754.0,1625.0,2057.0,2051.0,3031681.0,
1756.0,1623.0,2053.0,2046.0,3031685.0,
1755.0,1625.0,2047.0,2041.0,3031688.0,
1754.0,1628.0,2052.0,2033.0,3031692.0,
1757.0,1625.0,2048.0,2028.0,3031696.0,
1755.0,1622.0,2049.0,2023.0,3031699.0,
1755.0,1625.0,2049.0,2019.0,3031703.0,
1756.0,1623.0,2049.0,2015.0,3031706.0,
1756.0,1621.0,2045.0,2011.0,3031710.0,
1755.0,1625.0,2047.0,2009.0,3031714.0,
1755.0,1624.0,2045.0,2006.0,3031717.0,
1755.0,1624.0,2043.0,2000.0,3031721.0,
1755.0,1624.0,2041.0,1997.0,3031725.0,
1755.0,1624.0,2039.0,1988.0,3031728.0,
1755.0,1626.0,2038.0,1989.0,3031732.0,
1758.0,1625.0,2034.0,1987.0,3031736.0,
1754.0,1625.0,2029.0,1985.0,3031739.0,
1755.0,1624.0,2033.0,1981.0,3031743.0,
1754.0,1627.0,2023.0,1978.0,3031746.0,
1755.0,1625.0,2021.0,1977.0,3031750.0,
1755.0,1626.0,2016.0,1974.0,3031754.0,
1754.0,1625.0,2013.0,1972.0,3031757.0,
1752.0,1625.0,2009.0,1970.0,3031761.0,
1756.0,1626.0,2007.0,1968.0,3031765.0,
1755.0,1625.0,2005.0,1967.0,3031768.0,
1755.0,1625.0,2005.0,1964.0,3031772.0,
1756.0,1625.0,2002.0,1964.0,3031776.0,
1755.0,1623.0,2002.0,1964.0,3031779.0,
1756.0,1624.0,2000.0,1963.0,3031783.0,
1756.0,1626.0,2000.0,1959.0,3031786.0,
1755.0,1624.0,2001.0,1957.0,3031790.0,
1754.0,1626.0,2000.0,1955.0,3031794.0,
1755.0,1625.0,1998.0,1954.0,3031797.0,
1754.0,1626.0,1999.0,1959.0,3031801.0,
1756.0,1624.0,2001.0,1956.0,3031805.0,
1755.0,1628.0,2000.0,1956.0,3031808.0,
1756.0,1626.0,2001.0,1953.0,3031812.0,
1749.0,1621.0,2000.0,1948.0,3031816.0,
1756.0,1623.0,2000.0,1948.0,3031819.0,
1755.0,1624.0,2000.0,1944.0,3031823.0,
1756.0,1624.0,1997.0,1942.0,3031826.0,
1757.0,1624.0,1998.0,1942.0,3031830.0,
1754.0,1625.0,1997.0,1940.0,3031834.0,
1755.0,1625.0,1995.0,1936.0,3031837.0,
1754.0,1624.0,1994.0,1934.0,3031841.0,
1754.0,1625.0,1994.0,1933.0,3031845.0,
1755.0,1624.0,1993.0,1932.0,3031848.0,
1754.0,1625.0,1992.0,1931.0,3031852.0,
1755.0,1626.0,1987.0,1920.0,3031855.0,
1756.0,1630.0,1986.0,1929.0,3031859.0,
1760.0,1624.0,1985.0,1926.0,3031863.0,
1755.0,1624.0,1982.0,1926.0,3031866.0,
1756.0,1624.0,1982.0,1929.0,3031870.0,
1755.0,1624.0,1981.0,1927.0,3031874.0,
1755.0,1626.0,1980.0,1927.0,3031877.0,
1755.0,1625.0,1976.0,1925.0,3031881.0,
1755.0,1622.0,1978.0,1926.0,3031885.0,
1754.0,1626.0,1977.0,1926.0,3031888.0,
1755.0,1624.0,1979.0,1924.0,3031892.0,
1751.0,1625.0,1976.0,1927.0,3031895.0,
1755.0,1623.0,1972.0,1931.0,3031899.0,
1754.0,1626.0,1972.0,1929.0,3031903.0,
1755.0,1624.0,1972.0,1931.0,3031906.0,
1755.0,1624.0,1971.0,1932.0,3031910.0,
1754.0,1624.0,1971.0,1930.0,3031914.0,
1756.0,1625.0,1968.0,1931.0,3031917.0,
1755.0,1622.0,1967.0,1931.0,3031921.0,
1755.0,1622.0,1966.0,1930.0,3031925.0,
1753.0,1624.0,1965.0,1933.0,3031928.0,
1756.0,1623.0,1965.0,1936.0,3031932.0,
1753.0,1623.0,1967.0,1938.0,3031935.0,
1756.0,1625.0,1967.0,1936.0,3031939.0,
1755.0,1626.0,1963.0,1937.0,3031943.0,
1755.0,1625.0,1966.0,1939.0,3031946.0,
1755.0,1623.0,1964.0,1936.0,3031950.0,
1755.0,1625.0,1964.0,1934.0,3031954.0,
1756.0,1624.0,1966.0,1934.0,3031957.0,
1755.0,1623.0,1967.0,1931.0,3031961.0,
1754.0,1623.0,1967.0,1930.0,3031965.0,
1756.0,1623.0,1965.0,1927.0,3031968.0,
1755.0,1624.0,1965.0,1925.0,3031972.0,
1756.0,1623.0,1963.0,1925.0,3031975.0,
1756.0,1623.0,1962.0,1923.0,3031979.0,
1755.0,1625.0,1961.0,1921.0,3031983.0,
1755.0,1623.0,1959.0,1924.0,3031986.0,
1754.0,1625.0,1959.0,1923.0,3031990.0,
1755.0,1623.0,1957.0,1921.0,3031994.0,
1755.0,1625.0,1957.0,1927.0,3031997.0,
1755.0,1629.0,1955.0,1927.0,3032001.0,
1762.0,1623.0,1953.0,1928.0,3032004.0,
1756.0,1622.0,1956.0,1931.0,3032008.0,
1754.0,1624.0,1952.0,1930.0,3032012.0,
1755.0,1624.0,1952.0,1935.0,3032015.0,
1754.0,1624.0,1951.0,1932.0,3032019.0,
1754.0,1625.0,1950.0,1929.0,3032023.0,
1755.0,1622.0,1949.0,1934.0,3032026.0,
1754.0,1625.0,1953.0,1935.0,3032030.0,
1755.0,1623.0,1947.0,1934.0,3032034.0,
1755.0,1624.0,1942.0,1933.0,3032037.0,
1755.0,1624.0,1941.0,1935.0,3032041.0,
1755.0,1626.0,1941.0,1936.0,3032044.0,
1756.0,1623.0,1941.0,1937.0,3032048.0,
1762.0,1623.0,1940.0,1938.0,3032052.0,
1754.0,1623.0,1940.0,1941.0,3032055.0,
1755.0,1623.0,1941.0,1944.0,3032059.0,
1755.0,1624.0,1939.0,1947.0,3032063.0,
1755.0,1623.0,1944.0,1944.0,3032066.0,
1755.0,1624.0,1941.0,1949.0,3032070.0,
1758.0,1623.0,1941.0,1947.0,3032074.0,
1755.0,1623.0,1939.0,1950.0,3032077.0,
1757.0,1622.0,1938.0,1947.0,3032081.0,
1756.0,1624.0,1937.0,1948.0,3032084.0,
1756.0,1619.0,1935.0,1950.0,3032088.0,
1756.0,1623.0,1933.0,1951.0,3032092.0,
1758.0,1623.0,1931.0,1953.0,3032095.0,
1755.0,1624.0,1931.0,1955.0,3032099.0,
1755.0,1624.0,1931.0,1964.0,3032103.0,
1755.0,1628.0,1933.0,1965.0,3032106.0,
1756.0,1624.0,1932.0,1970.0,3032110.0,
1755.0,1623.0,1933.0,1975.0,3032114.0,
1753.0,1623.0,1936.0,1982.0,3032117.0,
1756.0,1624.0,1936.0,1989.0,3032121.0,
1756.0,1623.0,1940.0,1995.0,3032124.0,
1756.0,1624.0,1946.0,2004.0,3032128.0,
1755.0,1628.0,1948.0,2011.0,3032132.0,
1750.0,1624.0,1950.0,2021.0,3032135.0,
1755.0,1626.0,1956.0,2030.0,3032139.0,
1756.0,1624.0,1959.0,2042.0,3032143.0,
1756.0,1623.0,1965.0,2050.0,3032146.0,
1756.0,1623.0,1976.0,2053.0,3032150.0,
1756.0,1624.0,1985.0,2070.0,3032154.0,
1757.0,1624.0,1994.0,2082.0,3032157.0,
1756.0,1624.0,2006.0,2092.0,3032161.0,
1756.0,1625.0,2011.0,2104.0,3032164.0,
1756.0,1623.0,2023.0,2111.0,3032168.0,
1755.0,1624.0,2034.0,2121.0,3032172.0,
1756.0,1624.0,2043.0,2134.0,3032175.0,
1755.0,1623.0,2059.0,2142.0,3032179.0,
1764.0,1624.0,2071.0,2148.0,3032183.0,
1756.0,1624.0,2083.0,2160.0,3032186.0,
1754.0,1623.0,2096.0,2170.0,3032190.0,
1758.0,1622.0,2108.0,2183.0,3032193.0,
1755.0,1617.0,2120.0,2190.0,3032197.0,
1755.0,1622.0,2127.0,2197.0,3032201.0,
1754.0,1623.0,2141.0,2204.0,3032204.0,
1756.0,1622.0,2147.0,2212.0,3032208.0,
1756.0,1623.0,2155.0,2221.0,3032212.0,
1755.0,1623.0,2163.0,2230.0,3032215.0,
1756.0,1622.0,2169.0,2239.0,3032219.0,
1755.0,1624.0,2173.0,2245.0,3032223.0,
1755.0,1622.0,2183.0,2249.0,3032226.0,
1756.0,1623.0,2188.0,2253.0,3032230.0,
1752.0,1622.0,2193.0,2259.0,3032233.0,
1758.0,1624.0,2200.0,2262.0,3032237.0,
1756.0,1623.0,2201.0,2265.0,3032241.0,
1756.0,1622.0,2205.0,2265.0,3032244.0,
1755.0,1623.0,2208.0,2269.0,3032248.0,
1757.0,1622.0,2213.0,2263.0,3032252.0,
1755.0,1624.0,2216.0,2268.0,3032255.0,
1756.0,1620.0,2217.0,2266.0,3032259.0,
1756.0,1623.0,2218.0,2266.0,3032263.0,
1757.0,1624.0,2228.0,2265.0,3032266.0,
1756.0,1622.0,2221.0,2259.0,3032270.0,
1756.0,1623.0,2222.0,2266.0,3032273.0,
1756.0,1623.0,2222.0,2266.0,3032277.0,
1758.0,1623.0,2214.0,2268.0,3032281.0,
1757.0,1626.0,2216.0,2269.0,3032284.0,
1755.0,1621.0,2216.0,2266.0,3032288.0,
1757.0,1623.0,2212.0,2264.0,3032292.0,
1755.0,1627.0,2211.0,2266.0,3032295.0,
1756.0,1622.0,2211.0,2265.0,3032299.0,
1757.0,1622.0,2206.0,2265.0,3032303.0,
1756.0,1624.0,2204.0,2265.0,3032306.0,
1756.0,1623.0,2197.0,2260.0,3032310.0,
1757.0,1623.0,2199.0,2257.0,3032313.0,
1756.0,1622.0,2194.0,2251.0,3032317.0,
1755.0,1620.0,2192.0,2247.0,3032321.0,
1756.0,1622.0,2190.0,2242.0,3032324.0,
1757.0,1622.0,2186.0,2237.0,3032328.0,
1756.0,1622.0,2183.0,2233.0,3032332.0,
1755.0,1623.0,2180.0,2232.0,3032335.0,
1757.0,1623.0,2176.0,2224.0,3032339.0,
1755.0,1621.0,2173.0,2219.0,3032342.0,
1756.0,1620.0,2169.0,2213.0,3032346.0,
1758.0,1622.0,2163.0,2203.0,3032350.0,
1755.0,1622.0,2159.0,2196.0,3032353.0,
1756.0,1623.0,2155.0,2190.0,3032357.0,
1756.0,1621.0,2148.0,2179.0,3032361.0,
1757.0,1621.0,2144.0,2173.0,3032364.0,
1757.0,1620.0,2138.0,2163.0,3032368.0,
1755.0,1622.0,2136.0,2155.0,3032372.0,
1755.0,1622.0,2132.0,2150.0,3032375.0,
1756.0,1622.0,2128.0,2143.0,3032379.0,
1758.0,1621.0,2122.0,2136.0,3032382.0,
1757.0,1622.0,2119.0,2127.0,3032386.0,
1757.0,1622.0,2116.0,2123.0,3032390.0,
1756.0,1620.0,2111.0,2116.0,3032393.0,
1757.0,1621.0,2107.0,2110.0,3032397.0,
1756.0,1621.0,2101.0,2102.0,3032401.0,
1755.0,1620.0,2097.0,2095.0,3032404.0,
1756.0,1621.0,2090.0,2088.0,3032408.0,
1756.0,1622.0,2084.0,2084.0,3032412.0,
1756.0,1621.0,2083.0,2082.0,3032415.0,
1756.0,1621.0,2079.0,2077.0,3032419.0,
1756.0,1621.0,2073.0,2074.0,3032422.0,
1756.0,1620.0,2071.0,2070.0,3032426.0,
1756.0,1622.0,2068.0,2065.0,3032430.0,
1756.0,1619.0,2066.0,2062.0,3032433.0,
1756.0,1620.0,2066.0,2058.0,3032437.0,
1757.0,1622.0,2068.0,2052.0,3032441.0,
1756.0,1617.0,2066.0,2044.0,3032444.0,
1756.0,1620.0,2070.0,2040.0,3032448.0,
1756.0,1619.0,2070.0,2031.0,3032452.0,
1755.0,1621.0,2069.0,2028.0,3032455.0,
1756.0,1621.0,2069.0,2020.0,3032459.0,
1755.0,1620.0,2069.0,2016.0,3032462.0,
1755.0,1621.0,2065.0,2012.0,3032466.0,
1756.0,1619.0,2069.0,2008.0,3032470.0,
1755.0,1622.0,2068.0,2004.0,3032473.0,
1756.0,1619.0,2069.0,2001.0,3032477.0,
1757.0,1621.0,2067.0,1994.0,3032481.0,
1751.0,1620.0,2068.0,1991.0,3032484.0,
1757.0,1619.0,2069.0,1986.0,3032488.0,
1755.0,1620.0,2066.0,1981.0,3032491.0,
1755.0,1620.0,2068.0,1976.0,3032495.0,
1755.0,1618.0,2065.0,1976.0,3032499.0,
1755.0,1620.0,2064.0,1969.0,3032502.0,
1756.0,1618.0,2067.0,1968.0,3032506.0,
1755.0,1621.0,2064.0,1959.0,3032510.0,
1755.0,1618.0,2059.0,1962.0,3032513.0,
1755.0,1620.0,2056.0,1965.0,3032517.0,
1753.0,1620.0,2055.0,1968.0,3032521.0,
1756.0,1625.0,2056.0,1971.0,3032524.0,
1755.0,1618.0,2051.0,1973.0,3032528.0,
1753.0,1620.0,2049.0,1976.0,3032531.0,
1756.0,1620.0,2047.0,1978.0,3032535.0,
1758.0,1619.0,2051.0,1979.0,3032539.0,
1755.0,1620.0,2044.0,1976.0,3032542.0,
1755.0,1618.0,2044.0,1977.0,3032546.0,
1757.0,1619.0,2042.0,1975.0,3032550.0,
1756.0,1620.0,2042.0,1973.0,3032553.0,
1755.0,1620.0,2040.0,1970.0,3032557.0,
1755.0,1619.0,2040.0,1972.0,3032561.0,
1756.0,1619.0,2038.0,1971.0,3032564.0,
1754.0,1619.0,2035.0,1970.0,3032568.0,
1756.0,1621.0,2034.0,1971.0,3032571.0,
1756.0,1616.0,2032.0,1973.0,3032575.0,
1756.0,1620.0,2030.0,1972.0,3032579.0,
1756.0,1620.0,2030.0,1968.0,3032582.0,
1755.0,1619.0,2030.0,1964.0,3032586.0,
1756.0,1619.0,2028.0,1963.0,3032590.0,
1755.0,1619.0,2029.0,1963.0,3032593.0,
1756.0,1619.0,2028.0,1963.0,3032597.0,
1755.0,1619.0,2027.0,1959.0,3032601.0,
1756.0,1626.0,2024.0,1956.0,3032604.0,
1755.0,1618.0,2032.0,1957.0,3032608.0,
1755.0,1621.0,2023.0,1956.0,3032611.0,
1755.0,1619.0,2026.0,1958.0,3032615.0,
1755.0,1619.0,2024.0,1956.0,3032619.0,
1757.0,1619.0,2024.0,1956.0,3032622.0,
1755.0,1618.0,2022.0,1953.0,3032626.0,
1756.0,1619.0,2021.0,1951.0,3032630.0,
1755.0,1618.0,2020.0,1948.0,3032633.0,
1754.0,1618.0,2020.0,1944.0,3032637.0,
1755.0,1617.0,2020.0,1942.0,3032641.0,
1755.0,1619.0,2017.0,1938.0,3032644.0,
1755.0,1619.0,2014.0,1935.0,3032648.0,
1756.0,1619.0,2016.0,1936.0,3032651.0,
1758.0,1619.0,2014.0,1935.0,3032655.0,
1756.0,1619.0,2012.0,1933.0,3032659.0,
1755.0,1618.0,2010.0,1933.0,3032662.0,
1754.0,1618.0,2007.0,1933.0,3032666.0,
1755.0,1618.0,2007.0,1933.0,3032670.0,
1756.0,1619.0,2004.0,1934.0,3032673.0,
1754.0,1618.0,2003.0,1933.0,3032677.0,
1758.0,1619.0,1997.0,1932.0,3032680.0,
1755.0,1620.0,1994.0,1931.0,3032684.0,
1756.0,1617.0,1991.0,1931.0,3032688.0,
1755.0,1619.0,1990.0,1935.0,3032691.0,
1756.0,1618.0,1985.0,1936.0,3032695.0,
1756.0,1618.0,1985.0,1935.0,3032699.0,
1756.0,1618.0,1981.0,1936.0,3032702.0,
1756.0,1620.0,1981.0,1935.0,3032706.0,
1756.0,1618.0,1980.0,1935.0,3032710.0,
1756.0,1617.0,1978.0,1936.0,3032713.0,
1756.0,1624.0,1976.0,1934.0,3032717.0,
1756.0,1618.0,1974.0,1934.0,3032720.0,
1755.0,1620.0,1976.0,1936.0,3032724.0,
1756.0,1619.0,1971.0,1933.0,3032728.0,
1756.0,1619.0,1974.0,1932.0,3032731.0,
1756.0,1619.0,1970.0,1932.0,3032735.0,
1756.0,1618.0,1968.0,1928.0,3032739.0,
1755.0,1620.0,1968.0,1921.0,3032742.0,
1756.0,1619.0,1969.0,1922.0,3032746.0,
1755.0,1618.0,1966.0,1909.0,3032750.0,
1758.0,1617.0,1958.0,1914.0,3032753.0,
1756.0,1618.0,1965.0,1912.0,3032757.0,
1755.0,1619.0,1965.0,1908.0,3032760.0,
1756.0,1619.0,1965.0,1907.0,3032764.0,
1753.0,1619.0,1964.0,1903.0,3032768.0,
1757.0,1619.0,1962.0,1903.0,3032771.0,
1755.0,1617.0,1963.0,1901.0,3032775.0,
1756.0,1616.0,1963.0,1901.0,3032779.0,
1754.0,1612.0,1963.0,1900.0,3032782.0,
1757.0,1619.0,1971.0,1897.0,3032786.0,
1756.0,1618.0,1963.0,1895.0,3032790.0,
1755.0,1618.0,1966.0,1895.0,3032793.0,
1755.0,1618.0,1971.0,1895.0,3032797.0,
1755.0,1617.0,1970.0,1891.0,3032800.0,
1754.0,1620.0,1969.0,1889.0,3032804.0,
1753.0,1617.0,1970.0,1889.0,3032808.0,
1753.0,1619.0,1970.0,1887.0,3032811.0,
1755.0,1620.0,1969.0,1884.0,3032815.0,
1754.0,1616.0,1968.0,1887.0,3032819.0,
1754.0,1619.0,1965.0,1896.0,3032822.0,
1756.0,1620.0,1965.0,1889.0,3032826.0,
1755.0,1617.0,1963.0,1891.0,3032829.0,
1756.0,1617.0,1963.0,1889.0,3032833.0,
1752.0,1618.0,1962.0,1890.0,3032837.0,
1755.0,1619.0,1959.0,1892.0,3032840.0,
1755.0,1617.0,1960.0,1893.0,3032844.0,
1752.0,1619.0,1958.0,1897.0,3032848.0,
1755.0,1617.0,1958.0,1896.0,3032851.0,
1755.0,1617.0,1955.0,1899.0,3032855.0,
1755.0,1616.0,1955.0,1900.0,3032859.0,
1755.0,1622.0,1954.0,1900.0,3032862.0,
1754.0,1613.0,1951.0,1901.0,3032866.0,
1754.0,1617.0,1949.0,1903.0,3032869.0,
1755.0,1618.0,1949.0,1901.0,3032873.0,
1754.0,1618.0,1947.0,1901.0,3032877.0,
1756.0,1619.0,1947.0,1897.0,3032880.0,
1756.0,1617.0,1949.0,1893.0,3032884.0,
1755.0,1618.0,1944.0,1893.0,3032888.0,
1755.0,1618.0,1944.0,1894.0,3032891.0,
1755.0,1618.0,1947.0,1897.0,3032895.0,
1754.0,1618.0,1944.0,1899.0,3032899.0,
1755.0,1619.0,1945.0,1900.0,3032902.0,
1755.0,1618.0,1943.0,1904.0,3032906.0,
1755.0,1617.0,1941.0,1905.0,3032909.0,
1755.0,1617.0,1938.0,1905.0,3032913.0,
1755.0,1618.0,1937.0,1914.0,3032917.0,
1755.0,1617.0,1936.0,1922.0,3032920.0,
1755.0,1616.0,1934.0,1922.0,3032924.0,
1754.0,1617.0,1932.0,1927.0,3032928.0,
1754.0,1618.0,1930.0,1928.0,3032931.0,
1755.0,1617.0,1928.0,1932.0,3032935.0,
1755.0,1617.0,1925.0,1938.0,3032939.0,
1755.0,1619.0,1922.0,1945.0,3032942.0,
1755.0,1618.0,1919.0,1950.0,3032946.0,
1755.0,1617.0,1921.0,1954.0,3032949.0,
1754.0,1618.0,1919.0,1962.0,3032953.0,
1754.0,1617.0,1915.0,1967.0,3032957.0,
1755.0,1622.0,1916.0,1974.0,3032960.0,
1755.0,1621.0,1916.0,1985.0,3032964.0,
1755.0,1617.0,1918.0,1990.0,3032968.0,
1754.0,1618.0,1916.0,1998.0,3032971.0,
1752.0,1618.0,1919.0,2005.0,3032975.0,
1756.0,1616.0,1923.0,2015.0,3032978.0,
1754.0,1621.0,1927.0,2021.0,3032982.0,
1754.0,1620.0,1928.0,2029.0,3032986.0,
1754.0,1620.0,1934.0,2037.0,3032989.0,
1755.0,1619.0,1941.0,2047.0,3032993.0,
1754.0,1618.0,1945.0,2054.0,3032997.0,
1755.0,1619.0,1953.0,2064.0,3033000.0,
1754.0,1619.0,1962.0,2074.0,3033004.0,
1755.0,1621.0,1973.0,2081.0,3033008.0,
1754.0,1622.0,1982.0,2087.0,3033011.0,
1755.0,1620.0,1991.0,2102.0,3033015.0,
1757.0,1621.0,2001.0,2106.0,3033018.0,
1755.0,1619.0,2013.0,2117.0,3033022.0,
1755.0,1620.0,2026.0,2126.0,3033026.0,
1753.0,1619.0,2034.0,2129.0,3033029.0,
1756.0,1620.0,2051.0,2136.0,3033033.0,
1755.0,1621.0,2062.0,2143.0,3033037.0,
1755.0,1620.0,2075.0,2150.0,3033040.0,
1754.0,1620.0,2082.0,2157.0,3033044.0,
1754.0,1618.0,2094.0,2160.0,3033048.0,
1755.0,1619.0,2102.0,2163.0,3033051.0,
1755.0,1620.0,2112.0,2164.0,3033055.0,
1755.0,1620.0,2121.0,2170.0,3033058.0,
1754.0,1618.0,2127.0,2175.0,3033062.0,
1755.0,1620.0,2132.0,2180.0,3033066.0,
1755.0,1619.0,2138.0,2184.0,3033069.0,
1752.0,1619.0,2145.0,2188.0,3033073.0,
1754.0,1621.0,2148.0,2199.0,3033077.0,
1755.0,1620.0,2156.0,2201.0,3033080.0,
1755.0,1618.0,2158.0,2205.0,3033084.0,
1754.0,1621.0,2165.0,2207.0,3033088.0,
1754.0,1620.0,2170.0,2212.0,3033091.0,
1755.0,1620.0,2174.0,2217.0,3033095.0,
1755.0,1619.0,2176.0,2220.0,3033098.0,
1754.0,1619.0,2180.0,2222.0,3033102.0,
1755.0,1621.0,2183.0,2224.0,3033106.0,
1753.0,1619.0,2183.0,2229.0,3033109.0,
1758.0,1619.0,2184.0,2229.0,3033113.0,
1755.0,1617.0,2185.0,2230.0,3033117.0,
1754.0,1617.0,2185.0,2229.0,3033120.0,
1756.0,1618.0,2185.0,2228.0,3033124.0,
1755.0,1620.0,2183.0,2226.0,3033127.0,
1755.0,1619.0,2180.0,2226.0,3033131.0,
1755.0,1618.0,2177.0,2225.0,3033135.0,
1755.0,1618.0,2174.0,2221.0,3033138.0,
1754.0,1620.0,2174.0,2224.0,3033142.0,
1755.0,1619.0,2171.0,2223.0,3033146.0,
1753.0,1619.0,2170.0,2222.0,3033149.0,
1760.0,1620.0,2167.0,2215.0,3033153.0,
1754.0,1619.0,2165.0,2216.0,3033157.0,
1754.0,1620.0,2166.0,2211.0,3033160.0,
1755.0,1617.0,2161.0,2208.0,3033164.0,
1755.0,1619.0,2154.0,2202.0,3033167.0,
1754.0,1618.0,2158.0,2198.0,3033171.0,
1754.0,1620.0,2156.0,2194.0,3033175.0,
1754.0,1620.0,2156.0,2188.0,3033178.0,
1754.0,1619.0,2153.0,2179.0,3033182.0,
1755.0,1620.0,2150.0,2172.0,3033186.0,
1755.0,1619.0,2146.0,2165.0,3033189.0,
1754.0,1619.0,2144.0,2155.0,3033193.0,
1754.0,1620.0,2142.0,2146.0,3033197.0,
1754.0,1620.0,2138.0,2137.0,3033200.0,
1754.0,1620.0,2131.0,2128.0,3033204.0,
1754.0,1619.0,2128.0,2120.0,3033207.0,
1754.0,1615.0,2122.0,2113.0,3033211.0,
1753.0,1619.0,2122.0,2106.0,3033215.0,
1755.0,1619.0,2115.0,2097.0,3033218.0,
1754.0,1620.0,2114.0,2094.0,3033222.0,
1755.0,1619.0,2110.0,2085.0,3033226.0,
1749.0,1620.0,2105.0,2083.0,3033229.0,
1754.0,1617.0,2102.0,2078.0,3033233.0,
1754.0,1619.0,2097.0,2077.0,3033237.0,
1754.0,1622.0,2092.0,2070.0,3033240.0,
1753.0,1619.0,2091.0,2068.0,3033244.0,
1754.0,1617.0,2082.0,2062.0,3033247.0,
1753.0,1622.0,2079.0,2061.0,3033251.0,
1754.0,1619.0,2075.0,2058.0,3033255.0,
1755.0,1620.0,2072.0,2055.0,3033258.0,
1748.0,1620.0,2072.0,2054.0,3033262.0,
1754.0,1621.0,2068.0,2051.0,3033266.0,
1753.0,1618.0,2067.0,2051.0,3033269.0,
1753.0,1618.0,2064.0,2049.0,3033273.0,
1754.0,1618.0,2064.0,2045.0,3033276.0,
1754.0,1619.0,2062.0,2045.0,3033280.0,
1755.0,1620.0,2058.0,2044.0,3033284.0,
1754.0,1620.0,2056.0,2042.0,3033287.0,
1754.0,1619.0,2056.0,2044.0,3033291.0,
1754.0,1620.0,2054.0,2041.0,3033295.0,
1761.0,1620.0,2052.0,2036.0,3033298.0,
1755.0,1620.0,2053.0,2038.0,3033302.0,
1754.0,1617.0,2053.0,2035.0,3033306.0,
1752.0,1619.0,2056.0,2034.0,3033309.0,
1753.0,1619.0,2052.0,2036.0,3033313.0,
1754.0,1617.0,2051.0,2030.0,3033316.0,
1755.0,1618.0,2050.0,2027.0,3033320.0,
1754.0,1619.0,2049.0,2022.0,3033324.0,
1754.0,1618.0,2045.0,2022.0,3033327.0,
1754.0,1618.0,2045.0,2019.0,3033331.0,
1754.0,1618.0,2045.0,2016.0,3033335.0,
1754.0,1617.0,2044.0,2010.0,3033338.0,
1754.0,1619.0,2042.0,2009.0,3033342.0,
1758.0,1618.0,2040.0,2008.0,3033346.0,
1754.0,1614.0,2039.0,2005.0,3033349.0,
1753.0,1619.0,2040.0,2004.0,3033353.0,
1754.0,1621.0,2041.0,2001.0,3033356.0,
1754.0,1618.0,2039.0,1998.0,3033360.0,
1750.0,1618.0,2040.0,1997.0,3033364.0,
1753.0,1619.0,2045.0,1994.0,3033367.0,
1753.0,1617.0,2045.0,1991.0,3033371.0,
1754.0,1619.0,2048.0,1986.0,3033375.0,
1753.0,1619.0,2048.0,1983.0,3033378.0,
1753.0,1618.0,2049.0,1979.0,3033382.0,
1753.0,1618.0,2042.0,1976.0,3033385.0,
1753.0,1618.0,2049.0,1969.0,3033389.0,
1754.0,1618.0,2054.0,1969.0,3033393.0,
1754.0,1619.0,2052.0,1966.0,3033396.0,
1754.0,1618.0,2050.0,1962.0,3033400.0,
1753.0,1619.0,2053.0,1959.0,3033404.0,
1753.0,1618.0,2052.0,1953.0,3033407.0,
1754.0,1615.0,2049.0,1952.0,3033411.0,
1753.0,1618.0,2048.0,1947.0,3033415.0,
1753.0,1618.0,2046.0,1944.0,3033418.0,
1754.0,1619.0,2046.0,1939.0,3033422.0,
1754.0,1617.0,2046.0,1943.0,3033425.0,
1753.0,1618.0,2041.0,1941.0,3033429.0,
1753.0,1617.0,2040.0,1942.0,3033433.0,
1754.0,1619.0,2038.0,1943.0,3033436.0,
1754.0,1617.0,2045.0,1944.0,3033440.0,
1753.0,1617.0,2032.0,1944.0,3033444.0,
1753.0,1617.0,2030.0,1944.0,3033447.0,
1753.0,1618.0,2028.0,1945.0,3033451.0,
1753.0,1619.0,2027.0,1945.0,3033455.0,
1753.0,1619.0,2025.0,1947.0,3033458.0,
1752.0,1618.0,2019.0,1947.0,3033462.0,
1751.0,1617.0,2024.0,1946.0,3033465.0,
1754.0,1618.0,2025.0,1943.0,3033469.0,
1753.0,1618.0,2016.0,1936.0,3033473.0,
1754.0,1618.0,2017.0,1932.0,3033476.0,
1753.0,1618.0,2012.0,1930.0,3033480.0,
1754.0,1618.0,2011.0,1929.0,3033484.0,
1753.0,1617.0,2007.0,1924.0,3033487.0,
1754.0,1617.0,2003.0,1924.0,3033491.0,
1754.0,1618.0,1999.0,1924.0,3033495.0,
1752.0,1617.0,1997.0,1924.0,3033498.0,
1753.0,1615.0,1992.0,1922.0,3033502.0,
1753.0,1616.0,1991.0,1923.0,3033505.0,
1755.0,1619.0,1989.0,1924.0,3033509.0,
1753.0,1617.0,1985.0,1923.0,3033513.0,
1753.0,1617.0,1984.0,1917.0,3033516.0,
1753.0,1617.0,1981.0,1919.0,3033520.0,
1752.0,1618.0,1977.0,1920.0,3033524.0,
1753.0,1617.0,1974.0,1919.0,3033527.0,
1753.0,1618.0,1969.0,1921.0,3033531.0,
1752.0,1619.0,1966.0,1922.0,3033534.0,
1753.0,1617.0,1967.0,1918.0,3033538.0,
1753.0,1617.0,1962.0,1915.0,3033542.0,
1752.0,1617.0,1962.0,1921.0,3033545.0,
1754.0,1619.0,1961.0,1919.0,3033549.0,
1752.0,1618.0,1956.0,1920.0,3033553.0,
1753.0,1617.0,1957.0,1919.0,3033556.0,
1753.0,1614.0,1957.0,1921.0,3033560.0,
1754.0,1621.0,1956.0,1922.0,3033564.0,
1753.0,1621.0,1955.0,1925.0,3033567.0,
1753.0,1616.0,1956.0,1927.0,3033571.0,
1753.0,1617.0,1954.0,1932.0,3033574.0,
1752.0,1617.0,1955.0,1933.0,3033578.0,
1751.0,1617.0,1956.0,1935.0,3033582.0,
1753.0,1620.0,1954.0,1936.0,3033585.0,
1753.0,1617.0,1955.0,1935.0,3033589.0,
1753.0,1618.0,1957.0,1938.0,3033593.0,
1752.0,1617.0,1956.0,1934.0,3033596.0,
1752.0,1620.0,1955.0,1934.0,3033600.0,
1752.0,1618.0,1956.0,1934.0,3033604.0,
1752.0,1617.0,1956.0,1934.0,3033607.0,
1752.0,1618.0,1956.0,1929.0,3033611.0,
1752.0,1617.0,1956.0,1927.0,3033614.0,
1752.0,1619.0,1956.0,1928.0,3033618.0,
1752.0,1618.0,1954.0,1925.0,3033622.0,
1752.0,1618.0,1955.0,1922.0,3033625.0,
1752.0,1617.0,1953.0,1921.0,3033629.0,
1753.0,1617.0,1957.0,1921.0,3033633.0,
1752.0,1618.0,1956.0,1919.0,3033636.0,
1753.0,1617.0,1955.0,1918.0,3033640.0,
1752.0,1619.0,1963.0,1916.0,3033644.0,
1752.0,1619.0,1958.0,1915.0,3033647.0,
1753.0,1617.0,1958.0,1915.0,3033651.0,
1753.0,1618.0,1958.0,1914.0,3033654.0,
1752.0,1618.0,1959.0,1916.0,3033658.0,
1752.0,1616.0,1958.0,1918.0,3033662.0,
1752.0,1617.0,1957.0,1917.0,3033665.0,
1753.0,1619.0,1957.0,1919.0,3033669.0,
1751.0,1616.0,1953.0,1915.0,3033673.0,
1753.0,1616.0,1954.0,1914.0,3033676.0,
1752.0,1616.0,1954.0,1911.0,3033680.0,
1752.0,1616.0,1951.0,1910.0,3033683.0,
1752.0,1617.0,1952.0,1910.0,3033687.0,
1753.0,1616.0,1950.0,1905.0,3033691.0,
1753.0,1615.0,1946.0,1910.0,3033694.0,
1752.0,1616.0,1946.0,1908.0,3033698.0,
1751.0,1618.0,1945.0,1906.0,3033702.0,
1752.0,1615.0,1941.0,1911.0,3033705.0,
1753.0,1617.0,1939.0,1909.0,3033709.0,
1752.0,1617.0,1935.0,1909.0,3033713.0,
1752.0,1616.0,1935.0,1910.0,3033716.0,
1753.0,1617.0,1935.0,1911.0,3033720.0,
1752.0,1617.0,1933.0,1912.0,3033723.0,
1752.0,1615.0,1932.0,1913.0,3033727.0,
1752.0,1616.0,1930.0,1912.0,3033731.0,
1753.0,1617.0,1931.0,1911.0,3033734.0,
1753.0,1616.0,1929.0,1915.0,3033738.0,
1752.0,1617.0,1929.0,1912.0,3033742.0,
1752.0,1616.0,1929.0,1920.0,3033745.0,
1752.0,1616.0,1929.0,1913.0,3033749.0,
1750.0,1616.0,1928.0,1913.0,3033753.0,
1751.0,1616.0,1928.0,1909.0,3033756.0,
1751.0,1614.0,1930.0,1909.0,3033760.0,
1752.0,1616.0,1928.0,1911.0,3033763.0,
1752.0,1616.0,1932.0,1913.0,3033767.0,
1752.0,1617.0,1932.0,1915.0,3033771.0,
1751.0,1617.0,1932.0,1917.0,3033774.0,
1752.0,1616.0,1933.0,1915.0,3033778.0,
1755.0,1616.0,1932.0,1917.0,3033782.0,
1752.0,1615.0,1931.0,1914.0,3033785.0,
1751.0,1616.0,1933.0,1917.0,3033789.0,
1752.0,1617.0,1932.0,1920.0,3033793.0,
1748.0,1617.0,1935.0,1925.0,3033796.0,
1752.0,1616.0,1934.0,1930.0,3033800.0,
1753.0,1617.0,1933.0,1933.0,3033803.0,
1751.0,1617.0,1932.0,1945.0,3033807.0,
1754.0,1617.0,1934.0,1945.0,3033811.0,
1751.0,1616.0,1935.0,1955.0,3033814.0,
1751.0,1617.0,1937.0,1963.0,3033818.0,
1751.0,1617.0,1936.0,1968.0,3033822.0,
1751.0,1617.0,1938.0,1979.0,3033825.0,
1751.0,1618.0,1939.0,1987.0,3033829.0,
1753.0,1616.0,1942.0,1997.0,3033833.0,
1752.0,1619.0,1944.0,2007.0,3033836.0,
1753.0,1618.0,1943.0,2015.0,3033840.0,
1752.0,1618.0,1948.0,2023.0,3033843.0,
1751.0,1619.0,1948.0,2030.0,3033847.0,
1752.0,1616.0,1951.0,2041.0,3033851.0,
1752.0,1618.0,1955.0,2048.0,3033854.0,
1751.0,1618.0,1960.0,2054.0,3033858.0,
1753.0,1618.0,1967.0,2058.0,3033862.0,
1752.0,1619.0,1974.0,2063.0,3033865.0,
1753.0,1618.0,1982.0,2071.0,3033869.0,
1751.0,1617.0,1991.0,2079.0,3033872.0,
1752.0,1618.0,2000.0,2083.0,3033876.0,
1751.0,1619.0,2008.0,2092.0,3033880.0,
1752.0,1615.0,2015.0,2098.0,3033883.0,
1751.0,1621.0,2022.0,2106.0,3033887.0,
1752.0,1617.0,2032.0,2113.0,3033891.0,
1752.0,1618.0,2040.0,2116.0,3033894.0,
1751.0,1619.0,2050.0,2124.0,3033898.0,
1751.0,1616.0,2060.0,2122.0,3033902.0,
1752.0,1618.0,2067.0,2138.0,3033905.0,
1752.0,1617.0,2077.0,2143.0,3033909.0,
1751.0,1617.0,2084.0,2149.0,3033912.0,
1752.0,1617.0,2095.0,2157.0,3033916.0,
1752.0,1618.0,2101.0,2160.0,3033920.0,
1751.0,1619.0,2109.0,2166.0,3033923.0,
1751.0,1620.0,2114.0,2172.0,3033927.0,
1751.0,1619.0,2119.0,2176.0,3033931.0,
1752.0,1619.0,2121.0,2176.0,3033934.0,
1752.0,1619.0,2129.0,2178.0,3033938.0,
1751.0,1619.0,2136.0,2178.0,3033942.0,
1751.0,1616.0,2139.0,2181.0,3033945.0,
1751.0,1620.0,2145.0,2181.0,3033949.0,
1751.0,1618.0,2144.0,2184.0,3033952.0,
1752.0,1617.0,2148.0,2181.0,3033956.0,
1751.0,1619.0,2147.0,2182.0,3033960.0,
1751.0,1619.0,2148.0,2183.0,3033963.0,
1751.0,1617.0,2148.0,2184.0,3033967.0,
1752.0,1618.0,2148.0,2185.0,3033971.0,
1751.0,1617.0,2150.0,2192.0,3033974.0,
1751.0,1619.0,2146.0,2195.0,3033978.0,
1752.0,1618.0,2146.0,2201.0,3033982.0,
1751.0,1616.0,2143.0,2203.0,3033985.0,
1751.0,1619.0,2143.0,2205.0,3033989.0,
1758.0,1617.0,2138.0,2204.0,3033992.0,
1752.0,1615.0,2137.0,2207.0,3033996.0,
1750.0,1617.0,2133.0,2208.0,3034000.0,
1752.0,1617.0,2135.0,2207.0,3034003.0,
1751.0,1618.0,2132.0,2204.0,3034007.0,
1751.0,1619.0,2133.0,2212.0,3034011.0,
1752.0,1619.0,2131.0,2210.0,3034014.0,
1752.0,1618.0,2129.0,2209.0,3034018.0,
1752.0,1619.0,2126.0,2208.0,3034021.0,
1752.0,1618.0,2125.0,2207.0,3034025.0,
1752.0,1617.0,2125.0,2203.0,3034029.0,
1751.0,1617.0,2123.0,2193.0,3034032.0,
1750.0,1617.0,2121.0,2188.0,3034036.0,
1752.0,1616.0,2119.0,2181.0,3034040.0,
1754.0,1618.0,2117.0,2175.0,3034043.0,
1750.0,1617.0,2115.0,2166.0,3034047.0,
1755.0,1618.0,2110.0,2161.0,3034051.0,
1752.0,1617.0,2106.0,2156.0,3034054.0,
1753.0,1618.0,2105.0,2146.0,3034058.0,
1751.0,1617.0,2101.0,2143.0,3034061.0,
1750.0,1617.0,2098.0,2133.0,3034065.0,
1751.0,1618.0,2093.0,2126.0,3034069.0,
1751.0,1618.0,2087.0,2122.0,3034072.0,
1753.0,1616.0,2087.0,2115.0,3034076.0,
1754.0,1618.0,2074.0,2110.0,3034080.0,
1752.0,1616.0,2077.0,2105.0,3034083.0,
1753.0,1618.0,2073.0,2099.0,3034087.0,
1752.0,1617.0,2069.0,2097.0,3034091.0,
1753.0,1620.0,2068.0,2090.0,3034094.0,
1752.0,1617.0,2060.0,2085.0,3034098.0,
1753.0,1617.0,2056.0,2080.0,3034101.0,
1752.0,1617.0,2053.0,2076.0,3034105.0,
1752.0,1618.0,2048.0,2075.0,3034109.0,
1747.0,1618.0,2049.0,2074.0,3034112.0,
1752.0,1617.0,2044.0,2072.0,3034116.0,
1752.0,1618.0,2044.0,2067.0,3034120.0,
1751.0,1613.0,2038.0,2068.0,3034123.0,
1751.0,1617.0,2038.0,2062.0,3034127.0,
1752.0,1619.0,2035.0,2056.0,3034130.0,
1751.0,1617.0,2032.0,2056.0,3034134.0,
1751.0,1618.0,2032.0,2052.0,3034138.0,
1754.0,1617.0,2027.0,2049.0,3034141.0,
1751.0,1616.0,2026.0,2047.0,3034145.0,
1751.0,1618.0,2026.0,2043.0,3034149.0,
1751.0,1619.0,2024.0,2040.0,3034152.0,
1751.0,1616.0,2025.0,2034.0,3034156.0,
1751.0,1615.0,2023.0,2033.0,3034160.0,
1750.0,1616.0,2024.0,2029.0,3034163.0,
1751.0,1617.0,2021.0,2029.0,3034167.0,
1750.0,1618.0,2025.0,2026.0,3034170.0,
1747.0,1617.0,2027.0,2022.0,3034174.0,
1745.0,1616.0,2028.0,2018.0,3034178.0,
1752.0,1617.0,2033.0,2014.0,3034181.0,
1751.0,1617.0,2032.0,2011.0,3034185.0,
1751.0,1619.0,2037.0,2005.0,3034189.0,
1751.0,1614.0,2036.0,2002.0,3034192.0,
1750.0,1618.0,2035.0,1999.0,3034196.0,
1751.0,1615.0,2038.0,1991.0,3034200.0,
1751.0,1618.0,2040.0,1988.0,3034203.0,
1750.0,1618.0,2038.0,1977.0,3034207.0,
1751.0,1616.0,2040.0,1978.0,3034210.0,
1750.0,1617.0,2041.0,1975.0,3034214.0,
1751.0,1618.0,2041.0,1970.0,3034218.0,
1750.0,1616.0,2042.0,1968.0,3034221.0,
1751.0,1618.0,2043.0,1963.0,3034225.0,
1750.0,1617.0,2043.0,1962.0,3034229.0,
1751.0,1617.0,2044.0,1962.0,3034232.0,
1750.0,1618.0,2043.0,1958.0,3034236.0,
1751.0,1616.0,2042.0,1959.0,3034240.0,
1751.0,1618.0,2041.0,1962.0,3034243.0,
1751.0,1618.0,2038.0,1962.0,3034247.0,
1750.0,1615.0,2037.0,1964.0,3034250.0,
1751.0,1617.0,2033.0,1967.0,3034254.0,
1751.0,1618.0,2031.0,1965.0,3034258.0,
1751.0,1616.0,2025.0,1964.0,3034261.0,
1750.0,1617.0,2024.0,1965.0,3034265.0,
1751.0,1616.0,2020.0,1964.0,3034269.0,
1751.0,1617.0,2019.0,1964.0,3034272.0,
1750.0,1618.0,2015.0,1966.0,3034276.0,
1751.0,1622.0,2015.0,1962.0,3034279.0,
1750.0,1617.0,2011.0,1970.0,3034283.0,
1750.0,1619.0,2010.0,1963.0,3034287.0,
1750.0,1616.0,2007.0,1958.0,3034290.0,
1751.0,1618.0,2004.0,1950.0,3034294.0,
1752.0,1616.0,2004.0,1954.0,3034298.0,
1750.0,1615.0,2002.0,1949.0,3034301.0,
1751.0,1615.0,2005.0,1945.0,3034305.0,
1750.0,1617.0,2003.0,1945.0,3034309.0,
1751.0,1617.0,2003.0,1941.0,3034312.0,
1750.0,1615.0,2001.0,1944.0,3034316.0,
1750.0,1617.0,2001.0,1942.0,3034319.0,
1745.0,1616.0,1999.0,1941.0,3034323.0,
1749.0,1617.0,1996.0,1939.0,3034327.0,
1749.0,1615.0,1996.0,1934.0,3034330.0,
1749.0,1615.0,1996.0,1931.0,3034334.0,
1748.0,1617.0,1996.0,1927.0,3034338.0,
1750.0,1615.0,1994.0,1925.0,3034341.0,
1750.0,1617.0,1997.0,1924.0,3034345.0,
1751.0,1615.0,1995.0,1921.0,3034349.0,
1750.0,1611.0,1995.0,1922.0,3034352.0,
1750.0,1616.0,1995.0,1920.0,3034356.0,
1750.0,1615.0,1992.0,1922.0,3034359.0,
1750.0,1616.0,1990.0,1923.0,3034363.0,
1750.0,1616.0,1991.0,1923.0,3034367.0,
1749.0,1615.0,1990.0,1926.0,3034370.0,
1750.0,1616.0,1987.0,1927.0,3034374.0,
1749.0,1616.0,1989.0,1926.0,3034378.0,
1753.0,1615.0,1984.0,1933.0,3034381.0,
1751.0,1622.0,1984.0,1934.0,3034385.0,
1749.0,1618.0,1982.0,1936.0,3034389.0,
1749.0,1616.0,1980.0,1937.0,3034392.0,
1750.0,1619.0,1977.0,1935.0,3034396.0,
1750.0,1615.0,1976.0,1935.0,3034399.0,
1748.0,1616.0,1976.0,1938.0,3034403.0,
1747.0,1615.0,1974.0,1936.0,3034407.0,
1750.0,1616.0,1972.0,1936.0,3034410.0,
1749.0,1616.0,1969.0,1933.0,3034414.0,
1750.0,1613.0,1968.0,1936.0,3034418.0,
1748.0,1616.0,1962.0,1932.0,3034421.0,
1750.0,1617.0,1966.0,1938.0,3034425.0,
1749.0,1616.0,1963.0,1937.0,3034428.0,
1747.0,1617.0,1960.0,1939.0,3034432.0,
1747.0,1616.0,1961.0,1940.0,3034436.0,
1749.0,1616.0,1955.0,1940.0,3034439.0,
1749.0,1617.0,1954.0,1943.0,3034443.0,
1749.0,1615.0,1953.0,1947.0,3034447.0,
1750.0,1615.0,1954.0,1943.0,3034450.0,
1749.0,1615.0,1956.0,1946.0,3034454.0,
1751.0,1616.0,1957.0,1946.0,3034458.0,
1749.0,1615.0,1957.0,1949.0,3034461.0,
1749.0,1616.0,1959.0,1945.0,3034465.0,
1749.0,1614.0,1960.0,1944.0,3034468.0,
1750.0,1616.0,1963.0,1943.0,3034472.0,
1747.0,1614.0,1967.0,1938.0,3034476.0,
1750.0,1614.0,1969.0,1942.0,3034479.0,
1749.0,1616.0,1968.0,1940.0,3034483.0,
1749.0,1616.0,1969.0,1938.0,3034487.0,
1749.0,1618.0,1968.0,1936.0,3034490.0,
1750.0,1616.0,1969.0,1933.0,3034494.0,
1748.0,1618.0,1974.0,1933.0,3034498.0,
1750.0,1616.0,1972.0,1932.0,3034501.0,
1753.0,1617.0,1969.0,1928.0,3034505.0,
1749.0,1616.0,1970.0,1925.0,3034508.0,
1749.0,1615.0,1965.0,1929.0,3034512.0,
1750.0,1616.0,1972.0,1927.0,3034516.0,
1750.0,1616.0,1971.0,1927.0,3034519.0,
1748.0,1615.0,1970.0,1923.0,3034523.0,
1752.0,1617.0,1969.0,1923.0,3034527.0,
1749.0,1620.0,1968.0,1923.0,3034530.0,
1750.0,1617.0,1965.0,1919.0,3034534.0,
1750.0,1615.0,1967.0,1919.0,3034538.0,
1749.0,1614.0,1965.0,1918.0,3034541.0,
1750.0,1617.0,1963.0,1914.0,3034545.0,
1749.0,1616.0,1961.0,1915.0,3034548.0,
1750.0,1617.0,1960.0,1913.0,3034552.0,
1748.0,1615.0,1959.0,1912.0,3034556.0,
1749.0,1615.0,1960.0,1912.0,3034559.0,
1749.0,1615.0,1956.0,1911.0,3034563.0,
1744.0,1615.0,1953.0,1911.0,3034567.0,
1749.0,1614.0,1952.0,1914.0,3034570.0,
1749.0,1616.0,1949.0,1915.0,3034574.0,
1750.0,1616.0,1947.0,1912.0,3034577.0,
1749.0,1615.0,1945.0,1912.0,3034581.0,
1748.0,1614.0,1943.0,1912.0,3034585.0,
1749.0,1616.0,1940.0,1911.0,3034588.0,
1748.0,1615.0,1938.0,1909.0,3034592.0,
1755.0,1617.0,1939.0,1910.0,3034596.0,
1750.0,1615.0,1934.0,1912.0,3034599.0,
1749.0,1616.0,1933.0,1914.0,3034603.0,
1748.0,1615.0,1931.0,1917.0,3034607.0,
1749.0,1616.0,1928.0,1920.0,3034610.0,
1750.0,1614.0,1928.0,1922.0,3034614.0,
1749.0,1616.0,1925.0,1921.0,3034617.0,
1748.0,1616.0,1926.0,1924.0,3034621.0,
1749.0,1615.0,1926.0,1924.0,3034625.0,
1749.0,1615.0,1923.0,1927.0,3034628.0,
1749.0,1615.0,1921.0,1925.0,3034632.0,
1748.0,1610.0,1922.0,1926.0,3034636.0,
1749.0,1615.0,1922.0,1929.0,3034639.0,
1750.0,1614.0,1922.0,1931.0,3034643.0,
1751.0,1615.0,1922.0,1935.0,3034647.0,
1750.0,1616.0,1923.0,1938.0,3034650.0,
1749.0,1615.0,1921.0,1940.0,3034654.0,
1749.0,1617.0,1922.0,1940.0,3034657.0,
1748.0,1615.0,1925.0,1946.0,3034661.0,
1752.0,1616.0,1923.0,1943.0,3034665.0,
1749.0,1612.0,1924.0,1941.0,3034668.0,
1749.0,1616.0,1925.0,1942.0,3034672.0,
1747.0,1615.0,1927.0,1942.0,3034676.0,
1749.0,1615.0,1928.0,1945.0,3034679.0,
1749.0,1615.0,1930.0,1950.0,3034683.0,
1750.0,1616.0,1936.0,1953.0,3034687.0,
1749.0,1617.0,1938.0,1960.0,3034690.0,
1748.0,1615.0,1942.0,1964.0,3034694.0,
1749.0,1615.0,1942.0,1971.0,3034697.0,
1748.0,1616.0,1946.0,1980.0,3034701.0,
1748.0,1615.0,1948.0,1990.0,3034705.0,
1746.0,1615.0,1952.0,1999.0,3034708.0,
1749.0,1616.0,1957.0,2009.0,3034712.0,
1748.0,1616.0,1960.0,2018.0,3034716.0,
1748.0,1616.0,1963.0,2030.0,3034719.0,
1750.0,1616.0,1969.0,2039.0,3034723.0,
1748.0,1614.0,1975.0,2048.0,3034727.0,
1750.0,1615.0,1982.0,2057.0,3034730.0,
1750.0,1614.0,1985.0,2066.0,3034734.0,
1748.0,1616.0,1994.0,2073.0,3034737.0,
1750.0,1618.0,2000.0,2085.0,3034741.0,
1749.0,1617.0,2005.0,2092.0,3034745.0,
1749.0,1614.0,2014.0,2101.0,3034748.0,
1750.0,1615.0,2023.0,2111.0,3034752.0,
1748.0,1615.0,2030.0,2124.0,3034756.0,
1748.0,1614.0,2041.0,2134.0,3034759.0,
1749.0,1616.0,2049.0,2142.0,3034763.0,
1749.0,1617.0,2058.0,2153.0,3034766.0,
1748.0,1617.0,2066.0,2159.0,3034770.0,
1749.0,1616.0,2074.0,2166.0,3034774.0,
1749.0,1615.0,2083.0,2176.0,3034777.0,
1749.0,1615.0,2091.0,2180.0,3034781.0,
1750.0,1617.0,2099.0,2187.0,3034785.0,
1749.0,1613.0,2104.0,2189.0,3034788.0,
1749.0,1616.0,2109.0,2194.0,3034792.0,
1748.0,1614.0,2116.0,2193.0,3034796.0,
1748.0,1616.0,2120.0,2200.0,3034799.0,
1750.0,1616.0,2125.0,2202.0,3034803.0,
1750.0,1616.0,2132.0,2205.0,3034806.0,
1749.0,1616.0,2135.0,2204.0,3034810.0,
1751.0,1614.0,2141.0,2206.0,3034814.0,
1749.0,1616.0,2140.0,2208.0,3034817.0,
1748.0,1616.0,2150.0,2211.0,3034821.0,
1747.0,1615.0,2144.0,2216.0,3034825.0,
1749.0,1616.0,2147.0,2221.0,3034828.0,
1751.0,1616.0,2146.0,2223.0,3034832.0,
1749.0,1616.0,2146.0,2221.0,3034836.0,
1747.0,1615.0,2146.0,2223.0,3034839.0,
1749.0,1617.0,2146.0,2223.0,3034843.0,
1748.0,1616.0,2143.0,2217.0,3034846.0,
1749.0,1616.0,2141.0,2218.0,3034850.0,
1748.0,1616.0,2144.0,2217.0,3034854.0,
1749.0,1616.0,2135.0,2213.0,3034857.0,
1749.0,1614.0,2133.0,2214.0,3034861.0,
1749.0,1616.0,2129.0,2212.0,3034865.0,
1749.0,1616.0,2124.0,2211.0,3034868.0,
1748.0,1617.0,2121.0,2209.0,3034872.0,
1749.0,1608.0,2116.0,2204.0,3034876.0,
1750.0,1616.0,2112.0,2201.0,3034879.0,
1748.0,1614.0,2113.0,2193.0,3034883.0,
1748.0,1617.0,2108.0,2186.0,3034886.0,
1748.0,1614.0,2105.0,2179.0,3034890.0,
1749.0,1616.0,2101.0,2173.0,3034894.0,
1748.0,1616.0,2098.0,2165.0,3034897.0,
1749.0,1616.0,2094.0,2156.0,3034901.0,
1749.0,1616.0,2093.0,2149.0,3034905.0,
1749.0,1615.0,2090.0,2143.0,3034908.0,
1748.0,1615.0,2087.0,2135.0,3034912.0,
1748.0,1615.0,2082.0,2127.0,3034915.0,
1750.0,1616.0,2081.0,2118.0,3034919.0,
1749.0,1616.0,2079.0,2112.0,3034923.0,
1749.0,1616.0,2077.0,2105.0,3034926.0,
1747.0,1613.0,2066.0,2098.0,3034930.0,
1747.0,1615.0,2070.0,2093.0,3034934.0,
1749.0,1616.0,2068.0,2086.0,3034937.0,
1749.0,1615.0,2067.0,2079.0,3034941.0,
1749.0,1615.0,2065.0,2071.0,3034945.0,
1749.0,1616.0,2061.0,2066.0,3034948.0,
1748.0,1616.0,2060.0,2062.0,3034952.0,
1749.0,1617.0,2058.0,2057.0,3034955.0,
1748.0,1616.0,2053.0,2053.0,3034959.0,
1751.0,1617.0,2052.0,2052.0,3034963.0,
1750.0,1616.0,2049.0,2049.0,3034966.0,
1749.0,1616.0,2049.0,2051.0,3034970.0,
1748.0,1616.0,2046.0,2047.0,3034974.0,
1749.0,1612.0,2045.0,2047.0,3034977.0,
1749.0,1616.0,2043.0,2047.0,3034981.0,
1748.0,1615.0,2045.0,2046.0,3034985.0,
1748.0,1617.0,2041.0,2045.0,3034988.0,
1747.0,1617.0,2041.0,2049.0,3034992.0,
1749.0,1616.0,2042.0,2047.0,3034995.0,
1748.0,1615.0,2042.0,2048.0,3034999.0,
1745.0,1615.0,2041.0,2047.0,3035003.0,
1749.0,1616.0,2041.0,2046.0,3035006.0,
1748.0,1615.0,2042.0,2044.0,3035010.0,
1750.0,1615.0,2043.0,2042.0,3035014.0,
1747.0,1615.0,2043.0,2041.0,3035017.0,
1748.0,1615.0,2044.0,2039.0,3035021.0,
1749.0,1616.0,2044.0,2036.0,3035025.0,
1748.0,1616.0,2042.0,2030.0,3035028.0,
1748.0,1616.0,2040.0,2031.0,3035032.0,
1748.0,1618.0,2042.0,2027.0,3035035.0,
1749.0,1615.0,2041.0,2028.0,3035039.0,
1749.0,1616.0,2040.0,2028.0,3035043.0,
1748.0,1616.0,2040.0,2025.0,3035046.0,
1747.0,1615.0,2036.0,2025.0,3035050.0,
1747.0,1614.0,2036.0,2023.0,3035054.0,
1748.0,1615.0,2035.0,2022.0,3035057.0,
1748.0,1617.0,2033.0,2021.0,3035061.0,
1753.0,1616.0,2030.0,2013.0,3035064.0,
1748.0,1614.0,2032.0,2011.0,3035068.0,
1749.0,1616.0,2031.0,2008.0,3035072.0,
1747.0,1614.0,2030.0,2000.0,3035075.0,
1748.0,1615.0,2031.0,1994.0,3035079.0,
1749.0,1617.0,2030.0,1991.0,3035083.0,
1749.0,1617.0,2033.0,1988.0,3035086.0,
1748.0,1616.0,2032.0,1985.0,3035090.0,
1748.0,1614.0,2032.0,1982.0,3035094.0,
1749.0,1616.0,2029.0,1980.0,3035097.0,
1748.0,1615.0,2025.0,1982.0,3035101.0,
1749.0,1616.0,2027.0,1977.0,3035104.0,
1748.0,1615.0,2025.0,1976.0,3035108.0,
1749.0,1617.0,2026.0,1973.0,3035112.0,
1749.0,1615.0,2024.0,1970.0,3035115.0,
1748.0,1615.0,2025.0,1969.0,3035119.0,
1750.0,1615.0,2024.0,1968.0,3035123.0,
1748.0,1616.0,2023.0,1968.0,3035126.0,
1748.0,1613.0,2023.0,1968.0,3035130.0,
1749.0,1614.0,2024.0,1965.0,3035134.0,
1748.0,1615.0,2022.0,1962.0,3035137.0,
1748.0,1614.0,2021.0,1963.0,3035141.0,
1749.0,1615.0,2020.0,1963.0,3035144.0,
1745.0,1614.0,2018.0,1962.0,3035148.0,
1748.0,1615.0,2021.0,1962.0,3035152.0,
1747.0,1614.0,2020.0,1958.0,3035155.0,
1747.0,1615.0,2020.0,1955.0,3035159.0,
1747.0,1614.0,2019.0,1955.0,3035163.0,
1748.0,1614.0,2018.0,1954.0,3035166.0,
1748.0,1614.0,2014.0,1954.0,3035170.0,
1748.0,1615.0,2015.0,1955.0,3035174.0,
1749.0,1614.0,2012.0,1949.0,3035177.0,
1750.0,1613.0,2011.0,1948.0,3035181.0,
1748.0,1613.0,2012.0,1947.0,3035184.0,
1747.0,1616.0,2008.0,1946.0,3035188.0,
1747.0,1614.0,2010.0,1949.0,3035192.0,
1748.0,1614.0,2008.0,1948.0,3035195.0,
1747.0,1615.0,2004.0,1949.0,3035199.0,
1747.0,1616.0,2004.0,1946.0,3035203.0,
1748.0,1612.0,2000.0,1944.0,3035206.0,
1747.0,1618.0,1999.0,1945.0,3035210.0,
1748.0,1613.0,1995.0,1944.0,3035213.0,
1747.0,1613.0,1997.0,1944.0,3035217.0,
1747.0,1615.0,1992.0,1939.0,3035221.0,
1748.0,1616.0,1991.0,1940.0,3035224.0,
1748.0,1614.0,1992.0,1934.0,3035228.0,
1747.0,1614.0,1987.0,1940.0,3035232.0,
1748.0,1615.0,1986.0,1940.0,3035235.0,
1747.0,1613.0,1981.0,1940.0,3035239.0,
1746.0,1614.0,1981.0,1941.0,3035243.0,
1749.0,1613.0,1979.0,1936.0,3035246.0,
1745.0,1614.0,1984.0,1938.0,3035250.0,
1747.0,1614.0,1978.0,1933.0,3035253.0,
1747.0,1613.0,1976.0,1931.0,3035257.0,
1747.0,1613.0,1975.0,1930.0,3035261.0,
1746.0,1614.0,1976.0,1930.0,3035264.0,
1747.0,1613.0,1976.0,1929.0,3035268.0,
1747.0,1612.0,1978.0,1929.0,3035272.0,
1746.0,1614.0,1979.0,1927.0,3035275.0,
1746.0,1612.0,1980.0,1928.0,3035279.0,
1747.0,1614.0,1983.0,1930.0,3035283.0,
1746.0,1611.0,1981.0,1930.0,3035286.0,
1745.0,1615.0,1982.0,1932.0,3035290.0,
1749.0,1614.0,1980.0,1934.0,3035293.0,
1748.0,1613.0,1982.0,1936.0,3035297.0,
1747.0,1615.0,1983.0,1936.0,3035301.0,
1747.0,1613.0,1984.0,1938.0,3035304.0,
1747.0,1613.0,1985.0,1940.0,3035308.0,
1747.0,1614.0,1979.0,1942.0,3035312.0,
1747.0,1614.0,1980.0,1941.0,3035315.0,
1746.0,1612.0,1974.0,1945.0,3035319.0,
1747.0,1612.0,1976.0,1952.0,3035323.0,
1746.0,1614.0,1972.0,1948.0,3035326.0,
1747.0,1613.0,1971.0,1950.0,3035330.0,
1746.0,1614.0,1968.0,1950.0,3035333.0,
1746.0,1613.0,1965.0,1952.0,3035337.0,
1744.0,1613.0,1962.0,1956.0,3035341.0,
1746.0,1613.0,1960.0,1954.0,3035344.0,
1746.0,1612.0,1959.0,1954.0,3035348.0,
1748.0,1614.0,1958.0,1954.0,3035352.0,
1746.0,1612.0,1957.0,1953.0,3035355.0,
1748.0,1613.0,1954.0,1954.0,3035359.0,
1746.0,1614.0,1951.0,1954.0,3035362.0,
1747.0,1612.0,1948.0,1955.0,3035366.0,
1746.0,1612.0,1946.0,1951.0,3035370.0,
1748.0,1614.0,1948.0,1952.0,3035373.0,
1746.0,1612.0,1947.0,1950.0,3035377.0,
1746.0,1612.0,1946.0,1940.0,3035381.0,
1745.0,1610.0,1943.0,1943.0,3035384.0,
1746.0,1613.0,1944.0,1943.0,3035388.0,
1745.0,1613.0,1943.0,1940.0,3035392.0,
1745.0,1613.0,1943.0,1937.0,3035395.0,
1748.0,1614.0,1946.0,1936.0,3035399.0,
1746.0,1608.0,1942.0,1932.0,3035402.0,
1748.0,1614.0,1944.0,1931.0,3035406.0,
1745.0,1613.0,1943.0,1929.0,3035410.0,
1746.0,1614.0,1943.0,1926.0,3035413.0,
1747.0,1612.0,1938.0,1928.0,3035417.0,
1744.0,1613.0,1940.0,1925.0,3035421.0,
1746.0,1613.0,1942.0,1921.0,3035424.0,
1746.0,1614.0,1939.0,1916.0,3035428.0,
1745.0,1613.0,1940.0,1913.0,3035432.0,
1746.0,1613.0,1939.0,1910.0,3035435.0,
1747.0,1613.0,1939.0,1906.0,3035439.0,
1746.0,1613.0,1939.0,1906.0,3035442.0,
1745.0,1612.0,1939.0,1901.0,3035446.0,
1745.0,1610.0,1939.0,1899.0,3035450.0,
1748.0,1613.0,1939.0,1900.0,3035453.0,
1746.0,1614.0,1936.0,1900.0,3035457.0,
1746.0,1613.0,1936.0,1901.0,3035461.0,
1745.0,1612.0,1938.0,1904.0,3035464.0,
1747.0,1615.0,1939.0,1902.0,3035468.0,
1746.0,1613.0,1938.0,1907.0,3035472.0,
1745.0,1613.0,1937.0,1909.0,3035475.0,
1745.0,1612.0,1939.0,1910.0,3035479.0,
1745.0,1613.0,1938.0,1912.0,3035482.0,
1745.0,1614.0,1946.0,1912.0,3035486.0,
1747.0,1613.0,1931.0,1914.0,3035490.0,
1746.0,1613.0,1938.0,1914.0,3035493.0,
1746.0,1614.0,1938.0,1912.0,3035497.0,
1745.0,1612.0,1939.0,1917.0,3035501.0,
1745.0,1615.0,1937.0,1917.0,3035504.0,
1746.0,1613.0,1931.0,1917.0,3035508.0,
1745.0,1611.0,1932.0,1921.0,3035512.0,
1746.0,1613.0,1931.0,1924.0,3035515.0,
1747.0,1611.0,1930.0,1929.0,3035519.0,
1746.0,1612.0,1928.0,1932.0,3035522.0,
1746.0,1611.0,1930.0,1938.0,3035526.0,
1745.0,1612.0,1934.0,1944.0,3035530.0,
1744.0,1612.0,1930.0,1951.0,3035533.0,
1746.0,1612.0,1931.0,1962.0,3035537.0,
1745.0,1611.0,1934.0,1969.0,3035541.0,
1746.0,1611.0,1935.0,1977.0,3035544.0,
1746.0,1612.0,1938.0,1983.0,3035548.0,
1745.0,1612.0,1940.0,1990.0,3035551.0,
1745.0,1613.0,1946.0,2003.0,3035555.0,
1746.0,1611.0,1950.0,2011.0,3035559.0,
1746.0,1613.0,1950.0,2021.0,3035562.0,
1745.0,1611.0,1957.0,2032.0,3035566.0,
1744.0,1612.0,1961.0,2044.0,3035570.0,
1745.0,1612.0,1963.0,2055.0,3035573.0,
1745.0,1612.0,1969.0,2065.0,3035577.0,
1746.0,1613.0,1973.0,2077.0,3035581.0,
1747.0,1611.0,1978.0,2088.0,3035584.0,
1745.0,1613.0,1985.0,2099.0,3035588.0,
1746.0,1607.0,1992.0,2113.0,3035591.0,
1745.0,1613.0,1999.0,2120.0,3035595.0,
1746.0,1614.0,2004.0,2126.0,3035599.0,
1745.0,1612.0,2013.0,2133.0,3035602.0,
1746.0,1614.0,2020.0,2138.0,3035606.0,
1745.0,1615.0,2031.0,2149.0,3035610.0,
1745.0,1607.0,2038.0,2153.0,3035613.0,
1745.0,1614.0,2048.0,2158.0,3035617.0,
1746.0,1615.0,2059.0,2164.0,3035621.0,
1746.0,1614.0,2064.0,2168.0,3035624.0,
1745.0,1613.0,2074.0,2167.0,3035628.0,
1745.0,1615.0,2081.0,2172.0,3035631.0,
1744.0,1614.0,2087.0,2177.0,3035635.0,
1745.0,1614.0,2093.0,2180.0,3035639.0,
1745.0,1614.0,2099.0,2184.0,3035642.0,
1745.0,1613.0,2105.0,2190.0,3035646.0,
1744.0,1616.0,2110.0,2190.0,3035650.0,
1753.0,1613.0,2116.0,2190.0,3035653.0,
1743.0,1614.0,2121.0,2195.0,3035657.0,
1744.0,1615.0,2120.0,2196.0,3035661.0,
1745.0,1614.0,2129.0,2195.0,3035664.0,
1744.0,1614.0,2137.0,2195.0,3035668.0,
1745.0,1613.0,2136.0,2197.0,3035671.0,
1744.0,1614.0,2149.0,2197.0,3035675.0,
1744.0,1614.0,2143.0,2197.0,3035679.0,
1744.0,1614.0,2147.0,2195.0,3035682.0,
1744.0,1615.0,2148.0,2194.0,3035686.0,
1742.0,1615.0,2150.0,2187.0,3035690.0,
1744.0,1614.0,2150.0,2185.0,3035693.0,
1746.0,1615.0,2150.0,2184.0,3035697.0,
1743.0,1615.0,2150.0,2180.0,3035700.0,
1744.0,1611.0,2151.0,2180.0,3035704.0,
1745.0,1613.0,2141.0,2180.0,3035708.0,
1744.0,1615.0,2146.0,2178.0,3035711.0,
1743.0,1614.0,2142.0,2178.0,3035715.0,
1745.0,1616.0,2148.0,2180.0,3035719.0,
1745.0,1615.0,2144.0,2179.0,3035722.0,
1744.0,1615.0,2143.0,2181.0,3035726.0,
1744.0,1615.0,2144.0,2182.0,3035730.0,
1745.0,1613.0,2143.0,2180.0,3035733.0,
1743.0,1616.0,2139.0,2177.0,3035737.0,
1745.0,1615.0,2136.0,2177.0,3035740.0,
1744.0,1620.0,2135.0,2177.0,3035744.0,
1745.0,1616.0,2134.0,2171.0,3035748.0,
1749.0,1616.0,2130.0,2165.0,3035751.0,
1743.0,1617.0,2127.0,2164.0,3035755.0,
1744.0,1618.0,2123.0,2161.0,3035759.0,
1745.0,1616.0,2122.0,2157.0,3035762.0,
1745.0,1615.0,2118.0,2151.0,3035766.0,
1743.0,1615.0,2114.0,2148.0,3035770.0,
1745.0,1614.0,2114.0,2140.0,3035773.0,
1744.0,1616.0,2113.0,2137.0,3035777.0,
1743.0,1616.0,2109.0,2133.0,3035780.0,
1745.0,1616.0,2107.0,2129.0,3035784.0,
1744.0,1616.0,2101.0,2125.0,3035788.0,
1744.0,1617.0,2096.0,2116.0,3035791.0,
1742.0,1616.0,2092.0,2107.0,3035795.0,
1743.0,1615.0,2089.0,2100.0,3035799.0,
1744.0,1617.0,2085.0,2094.0,3035802.0,
1744.0,1617.0,2084.0,2084.0,3035806.0,
1747.0,1618.0,2079.0,2076.0,3035809.0,
1743.0,1617.0,2075.0,2070.0,3035813.0,
1743.0,1617.0,2073.0,2068.0,3035817.0,
1743.0,1616.0,2069.0,2062.0,3035820.0,
1744.0,1618.0,2068.0,2055.0,3035824.0,
1744.0,1617.0,2057.0,2053.0,3035828.0,
1743.0,1617.0,2061.0,2050.0,3035831.0,
1743.0,1618.0,2056.0,2044.0,3035835.0,
1742.0,1617.0,2052.0,2043.0,3035839.0,
1744.0,1617.0,2054.0,2040.0,3035842.0,
1744.0,1618.0,2052.0,2036.0,3035846.0,
1743.0,1613.0,2052.0,2034.0,3035849.0,
1744.0,1615.0,2050.0,2033.0,3035853.0,
1744.0,1620.0,2050.0,2030.0,3035857.0,
1743.0,1617.0,2046.0,2029.0,3035860.0,
1743.0,1620.0,2044.0,2030.0,3035864.0,
1742.0,1618.0,2044.0,2026.0,3035868.0,
1743.0,1617.0,2039.0,2025.0,3035871.0,
1743.0,1621.0,2039.0,2028.0,3035875.0,
1743.0,1619.0,2040.0,2025.0,3035879.0,
1743.0,1620.0,2039.0,2028.0,3035882.0,
1737.0,1620.0,2042.0,2031.0,3035886.0,
1743.0,1616.0,2041.0,2031.0,3035889.0,
1743.0,1620.0,2041.0,2035.0,3035893.0,
1743.0,1619.0,2041.0,2036.0,3035897.0,
1743.0,1619.0,2045.0,2038.0,3035900.0,
1744.0,1620.0,2044.0,2033.0,3035904.0,
1743.0,1619.0,2045.0,2029.0,3035908.0,
1742.0,1621.0,2045.0,2029.0,3035911.0,
1744.0,1620.0,2045.0,2029.0,3035915.0,
1743.0,1620.0,2043.0,2030.0,3035919.0,
1742.0,1619.0,2041.0,2028.0,3035922.0,
1743.0,1620.0,2044.0,2027.0,3035926.0,
1743.0,1621.0,2041.0,2024.0,3035929.0,
1744.0,1621.0,2042.0,2018.0,3035933.0,
1744.0,1620.0,2040.0,2017.0,3035937.0,
1743.0,1621.0,2039.0,2015.0,3035940.0,
1743.0,1620.0,2035.0,2013.0,3035944.0,
1743.0,1621.0,2035.0,2011.0,3035948.0,
1743.0,1621.0,2032.0,2011.0,3035951.0,
1742.0,1621.0,2032.0,2005.0,3035955.0,
1743.0,1622.0,2032.0,2003.0,3035958.0,
1743.0,1622.0,2029.0,2002.0,3035962.0,
1742.0,1622.0,2025.0,1994.0,3035966.0,
1744.0,1621.0,2022.0,1992.0,3035969.0,
1742.0,1622.0,2019.0,1987.0,3035973.0,
1743.0,1626.0,2020.0,1981.0,3035977.0,
1746.0,1622.0,2020.0,1978.0,3035980.0,
1745.0,1622.0,2012.0,1976.0,3035984.0,
1741.0,1622.0,2018.0,1973.0,3035988.0,
1742.0,1618.0,2020.0,1970.0,3035991.0,
1742.0,1622.0,2018.0,1969.0,3035995.0,
1743.0,1622.0,2018.0,1967.0,3035998.0,
1742.0,1628.0,2017.0,1963.0,3036002.0,
1743.0,1623.0,2018.0,1963.0,3036006.0,
1742.0,1628.0,2015.0,1962.0,3036009.0,
1745.0,1622.0,2016.0,1961.0,3036013.0,
1742.0,1622.0,2016.0,1957.0,3036017.0,
1742.0,1624.0,2012.0,1958.0,3036020.0,
1743.0,1624.0,2012.0,1955.0,3036024.0,
1743.0,1624.0,2009.0,1951.0,3036028.0,
1743.0,1623.0,2011.0,1948.0,3036031.0,
1743.0,1623.0,2009.0,1945.0,3036035.0,
1743.0,1623.0,2010.0,1942.0,3036038.0,
1743.0,1624.0,2010.0,1937.0,3036042.0,
1742.0,1621.0,2007.0,1935.0,3036046.0,
1743.0,1623.0,2005.0,1931.0,3036049.0,
1743.0,1623.0,2008.0,1929.0,3036053.0,
1737.0,1624.0,2008.0,1928.0,3036057.0,
1742.0,1626.0,2008.0,1930.0,3036060.0,
1744.0,1625.0,2005.0,1930.0,3036064.0,
1743.0,1625.0,2004.0,1928.0,3036068.0,
1742.0,1625.0,2003.0,1931.0,3036071.0,
1743.0,1625.0,2000.0,1932.0,3036075.0,
1744.0,1626.0,2002.0,1933.0,3036078.0,
1743.0,1626.0,1998.0,1935.0,3036082.0,
1743.0,1626.0,1998.0,1937.0,3036086.0,
1744.0,1624.0,1997.0,1939.0,3036089.0,
1742.0,1627.0,1995.0,1941.0,3036093.0,
1742.0,1625.0,1995.0,1943.0,3036097.0,
1743.0,1625.0,1995.0,1943.0,3036100.0,
1741.0,1624.0,1992.0,1943.0,3036104.0,
1742.0,1626.0,1990.0,1943.0,3036108.0,
1744.0,1626.0,1993.0,1943.0,3036111.0,
1742.0,1626.0,1989.0,1942.0,3036115.0,
1743.0,1626.0,1990.0,1944.0,3036118.0,
1743.0,1627.0,1987.0,1945.0,3036122.0,
1742.0,1626.0,1984.0,1947.0,3036126.0,
1742.0,1627.0,1988.0,1948.0,3036129.0,
1743.0,1627.0,1978.0,1943.0,3036133.0,
1742.0,1625.0,1976.0,1943.0,3036137.0,
1741.0,1623.0,1976.0,1945.0,3036140.0,
1743.0,1627.0,1971.0,1941.0,3036144.0,
1742.0,1627.0,1972.0,1946.0,3036147.0,
1741.0,1627.0,1972.0,1946.0,3036151.0,
1742.0,1629.0,1971.0,1945.0,3036155.0,
1743.0,1627.0,1971.0,1943.0,3036158.0,
1742.0,1627.0,1971.0,1945.0,3036162.0,
1741.0,1627.0,1973.0,1950.0,3036166.0,
1742.0,1627.0,1974.0,1950.0,3036169.0,
1743.0,1629.0,1970.0,1949.0,3036173.0,
1743.0,1627.0,1973.0,1950.0,3036177.0,
1742.0,1628.0,1967.0,1951.0,3036180.0,
1739.0,1627.0,1970.0,1951.0,3036184.0,
1743.0,1627.0,1970.0,1951.0,3036187.0,
1743.0,1628.0,1971.0,1951.0,3036191.0,
1742.0,1628.0,1968.0,1949.0,3036195.0,
1743.0,1628.0,1967.0,1949.0,3036198.0,
1743.0,1627.0,1961.0,1947.0,3036202.0,
1737.0,1628.0,1969.0,1945.0,3036206.0,
1743.0,1632.0,1969.0,1941.0,3036209.0,
1742.0,1629.0,1969.0,1940.0,3036213.0,
1742.0,1629.0,1969.0,1943.0,3036217.0,
1741.0,1629.0,1970.0,1942.0,3036220.0,
1742.0,1627.0,1971.0,1944.0,3036224.0,
1744.0,1631.0,1970.0,1945.0,3036227.0,
1743.0,1628.0,1971.0,1944.0,3036231.0,
1743.0,1629.0,1969.0,1946.0,3036235.0,
1743.0,1629.0,1971.0,1945.0,3036238.0,
1743.0,1630.0,1971.0,1944.0,3036242.0,
1742.0,1630.0,1969.0,1943.0,3036246.0,
1742.0,1631.0,1973.0,1947.0,3036249.0,
1742.0,1630.0,1973.0,1947.0,3036253.0,
1741.0,1631.0,1973.0,1946.0,3036257.0,
1743.0,1630.0,1972.0,1948.0,3036260.0,
1738.0,1631.0,1973.0,1948.0,3036264.0,
1743.0,1631.0,1970.0,1947.0,3036267.0,
1743.0,1630.0,1969.0,1948.0,3036271.0,
1737.0,1631.0,1969.0,1949.0,3036275.0,
1743.0,1631.0,1965.0,1949.0,3036278.0,
1742.0,1631.0,1968.0,1951.0,3036282.0,
1743.0,1632.0,1963.0,1951.0,3036286.0,
1743.0,1632.0,1962.0,1954.0,3036289.0,
1742.0,1632.0,1962.0,1954.0,3036293.0,
1744.0,1630.0,1958.0,1954.0,3036296.0,
1741.0,1637.0,1952.0,1957.0,3036300.0,
1742.0,1630.0,1950.0,1956.0,3036304.0,
1736.0,1631.0,1949.0,1958.0,3036307.0,
1743.0,1632.0,1945.0,1959.0,3036311.0,
1744.0,1631.0,1949.0,1965.0,3036315.0,
1742.0,1639.0,1941.0,1967.0,3036318.0,
1742.0,1630.0,1941.0,1967.0,3036322.0,
1743.0,1631.0,1938.0,1970.0,3036326.0,
1742.0,1634.0,1938.0,1971.0,3036329.0,
1742.0,1633.0,1937.0,1978.0,3036333.0,
1744.0,1633.0,1937.0,1977.0,3036336.0,
1744.0,1632.0,1936.0,1981.0,3036340.0,
1743.0,1630.0,1936.0,1984.0,3036344.0,
1743.0,1632.0,1936.0,1985.0,3036347.0,
1741.0,1631.0,1936.0,1987.0,3036351.0,
1744.0,1631.0,1936.0,1985.0,3036355.0,
1743.0,1632.0,1936.0,1988.0,3036358.0,
1743.0,1632.0,1938.0,1988.0,3036362.0,
1743.0,1633.0,1939.0,1991.0,3036366.0,
1744.0,1633.0,1942.0,1991.0,3036369.0,
1742.0,1630.0,1943.0,1994.0,3036373.0,
1743.0,1632.0,1942.0,1997.0,3036376.0,
1744.0,1633.0,1941.0,1999.0,3036380.0,
1750.0,1633.0,1948.0,2003.0,3036384.0,
1742.0,1631.0,1951.0,2007.0,3036387.0,
1742.0,1633.0,1954.0,2009.0,3036391.0,
1742.0,1634.0,1956.0,2015.0,3036395.0,
1742.0,1635.0,1958.0,2020.0,3036398.0,
1743.0,1632.0,1964.0,2025.0,3036402.0,
1743.0,1633.0,1967.0,2029.0,3036406.0,
1743.0,1631.0,1971.0,2036.0,3036409.0,
1742.0,1632.0,1972.0,2049.0,3036413.0,
1743.0,1634.0,1984.0,2052.0,3036416.0,
1743.0,1632.0,1991.0,2061.0,3036420.0,
1742.0,1632.0,1997.0,2069.0,3036424.0,
1743.0,1632.0,2002.0,2080.0,3036427.0,
1743.0,1638.0,2008.0,2089.0,3036431.0,
1743.0,1631.0,2018.0,2100.0,3036435.0,
1743.0,1633.0,2024.0,2106.0,3036438.0,
1742.0,1632.0,2035.0,2112.0,3036442.0,
1742.0,1629.0,2041.0,2119.0,3036445.0,
1743.0,1633.0,2050.0,2127.0,3036449.0,
1742.0,1633.0,2055.0,2131.0,3036453.0,
1740.0,1632.0,2063.0,2138.0,3036456.0,
1743.0,1633.0,2072.0,2145.0,3036460.0,
1742.0,1635.0,2075.0,2151.0,3036464.0,
1742.0,1632.0,2084.0,2158.0,3036467.0,
1744.0,1633.0,2091.0,2163.0,3036471.0,
1744.0,1632.0,2094.0,2168.0,3036475.0,
1743.0,1634.0,2100.0,2173.0,3036478.0,
1740.0,1634.0,2105.0,2179.0,3036482.0,
1743.0,1633.0,2110.0,2189.0,3036485.0,
1747.0,1632.0,2112.0,2189.0,3036489.0,
1740.0,1632.0,2115.0,2195.0,3036493.0,
1742.0,1633.0,2116.0,2201.0,3036496.0,
1742.0,1633.0,2121.0,2200.0,3036500.0,
1743.0,1633.0,2119.0,2203.0,3036504.0,
1743.0,1632.0,2130.0,2203.0,3036507.0,
1745.0,1634.0,2125.0,2204.0,3036511.0,
1742.0,1634.0,2126.0,2202.0,3036515.0,
1743.0,1635.0,2129.0,2200.0,3036518.0,
1741.0,1635.0,2134.0,2199.0,3036522.0,
1743.0,1632.0,2128.0,2195.0,3036525.0,
1743.0,1638.0,2132.0,2194.0,3036529.0,
1743.0,1633.0,2130.0,2191.0,3036533.0,
1744.0,1635.0,2128.0,2185.0,3036536.0,
1738.0,1633.0,2130.0,2186.0,3036540.0,
1744.0,1637.0,2127.0,2178.0,3036544.0,
1743.0,1635.0,2123.0,2176.0,3036547.0,
1742.0,1634.0,2122.0,2173.0,3036551.0,
1744.0,1635.0,2118.0,2169.0,3036555.0,
1744.0,1639.0,2114.0,2169.0,3036558.0,
1744.0,1635.0,2111.0,2162.0,3036562.0,
1743.0,1635.0,2107.0,2164.0,3036565.0,
1743.0,1635.0,2101.0,2157.0,3036569.0,
1743.0,1635.0,2099.0,2150.0,3036573.0,
1743.0,1634.0,2095.0,2151.0,3036576.0,
1743.0,1635.0,2092.0,2152.0,3036580.0,
1742.0,1635.0,2088.0,2143.0,3036584.0,
1742.0,1635.0,2087.0,2138.0,3036587.0,
1743.0,1637.0,2082.0,2134.0,3036591.0,
1742.0,1637.0,2081.0,2131.0,3036595.0,
1743.0,1637.0,2078.0,2128.0,3036598.0,
1743.0,1636.0,2076.0,2126.0,3036602.0,
1744.0,1637.0,2075.0,2125.0,3036605.0,
1742.0,1638.0,2076.0,2120.0,3036609.0,
1749.0,1639.0,2065.0,2117.0,3036613.0,
1743.0,1637.0,2061.0,2112.0,3036616.0,
1743.0,1637.0,2058.0,2109.0,3036620.0,
1744.0,1637.0,2053.0,2103.0,3036624.0,
1743.0,1637.0,2051.0,2099.0,3036627.0,
1744.0,1637.0,2046.0,2093.0,3036631.0,
1744.0,1637.0,2043.0,2084.0,3036634.0,
1743.0,1637.0,2038.0,2077.0,3036638.0,
1743.0,1639.0,2036.0,2071.0,3036642.0,
1750.0,1637.0,2032.0,2066.0,3036645.0,
1744.0,1635.0,2030.0,2065.0,3036649.0,
1743.0,1638.0,2028.0,2060.0,3036653.0,
1744.0,1637.0,2025.0,2055.0,3036656.0,
1743.0,1638.0,2024.0,2049.0,3036660.0,
1742.0,1638.0,2025.0,2045.0,3036664.0,
1743.0,1638.0,2023.0,2044.0,3036667.0,
1744.0,1646.0,2022.0,2041.0,3036671.0,
1742.0,1639.0,2024.0,2039.0,3036674.0,
1742.0,1641.0,2020.0,2036.0,3036678.0,
1744.0,1639.0,2022.0,2038.0,3036682.0,
1742.0,1641.0,2022.0,2038.0,3036685.0,
1744.0,1639.0,2022.0,2039.0,3036689.0,
1744.0,1639.0,2019.0,2037.0,3036693.0,
1742.0,1640.0,2022.0,2036.0,3036696.0,
1744.0,1640.0,2020.0,2034.0,3036700.0,
1743.0,1640.0,2021.0,2030.0,3036704.0,
1744.0,1639.0,2022.0,2032.0,3036707.0,
1737.0,1641.0,2025.0,2032.0,3036711.0,
1743.0,1640.0,2019.0,2025.0,3036714.0,
1743.0,1640.0,2020.0,2031.0,3036718.0,
1744.0,1642.0,2022.0,2030.0,3036722.0,
1743.0,1643.0,2022.0,2030.0,3036725.0,
1745.0,1643.0,2024.0,2030.0,3036729.0,
1743.0,1642.0,2026.0,2026.0,3036733.0,
1744.0,1643.0,2027.0,2027.0,3036736.0,
1744.0,1644.0,2021.0,2021.0,3036740.0,
1743.0,1642.0,2029.0,2017.0,3036744.0,
1743.0,1642.0,2034.0,2018.0,3036747.0,
1743.0,1640.0,2036.0,2017.0,3036751.0,
1743.0,1646.0,2033.0,2015.0,3036754.0,
1743.0,1643.0,2034.0,2009.0,3036758.0,
1743.0,1642.0,2038.0,2006.0,3036762.0,
1743.0,1641.0,2041.0,2002.0,3036765.0,
1742.0,1640.0,2041.0,1997.0,3036769.0,
1744.0,1643.0,2041.0,1991.0,3036773.0,
1742.0,1642.0,2041.0,1990.0,3036776.0,
1742.0,1640.0,2041.0,1986.0,3036780.0,
1742.0,1641.0,2040.0,1982.0,3036783.0,
1743.0,1645.0,2033.0,1977.0,3036787.0,
1744.0,1641.0,2041.0,1974.0,3036791.0,
1744.0,1642.0,2037.0,1971.0,3036794.0,
1743.0,1644.0,2028.0,1972.0,3036798.0,
1743.0,1642.0,2033.0,1969.0,3036802.0,
1743.0,1643.0,2033.0,1969.0,3036805.0,
1743.0,1643.0,2031.0,1967.0,3036809.0,
1744.0,1644.0,2027.0,1965.0,3036813.0,
1743.0,1642.0,2026.0,1965.0,3036816.0,
1743.0,1641.0,2026.0,1963.0,3036820.0,
1743.0,1643.0,2023.0,1961.0,3036823.0,
1743.0,1644.0,2023.0,1962.0,3036827.0,
1743.0,1645.0,2023.0,1964.0,3036831.0,
1742.0,1644.0,2017.0,1965.0,3036834.0,
1744.0,1644.0,2014.0,1967.0,3036838.0,
1743.0,1648.0,2010.0,1967.0,3036842.0,
1743.0,1643.0,2010.0,1968.0,3036845.0,
1744.0,1644.0,2009.0,1968.0,3036849.0,
1744.0,1642.0,2004.0,1969.0,3036853.0,
1742.0,1644.0,1999.0,1972.0,3036856.0,
1743.0,1644.0,1999.0,1969.0,3036860.0,
1744.0,1644.0,1996.0,1969.0,3036863.0,
1743.0,1640.0,1993.0,1968.0,3036867.0,
1742.0,1645.0,1991.0,1967.0,3036871.0,
1743.0,1642.0,1989.0,1972.0,3036874.0,
1745.0,1643.0,1987.0,1969.0,3036878.0,
1749.0,1645.0,1987.0,1970.0,3036882.0,
1744.0,1644.0,1985.0,1968.0,3036885.0,
1743.0,1643.0,1984.0,1969.0,3036889.0,
1744.0,1645.0,1982.0,1970.0,3036893.0,
1743.0,1645.0,1983.0,1968.0,3036896.0,
1743.0,1646.0,1981.0,1967.0,3036900.0,
1743.0,1645.0,1981.0,1970.0,3036903.0,
1743.0,1644.0,1976.0,1969.0,3036907.0,
1743.0,1646.0,1980.0,1971.0,3036911.0,
1742.0,1646.0,1978.0,1970.0,3036914.0,
1742.0,1645.0,1979.0,1968.0,3036918.0,
1742.0,1647.0,1978.0,1969.0,3036922.0,
1743.0,1645.0,1980.0,1971.0,3036925.0,
1744.0,1646.0,1981.0,1973.0,3036929.0,
1743.0,1645.0,1975.0,1976.0,3036932.0,
1742.0,1647.0,1981.0,1974.0,3036936.0,
1743.0,1645.0,1980.0,1973.0,3036940.0,
1743.0,1645.0,1983.0,1974.0,3036943.0,
1743.0,1648.0,1980.0,1971.0,3036947.0,
1743.0,1647.0,1980.0,1969.0,3036951.0,
1744.0,1647.0,1980.0,1968.0,3036954.0,
1743.0,1647.0,1980.0,1966.0,3036958.0,
1744.0,1648.0,1978.0,1967.0,3036962.0,
1748.0,1648.0,1977.0,1964.0,3036965.0,
1742.0,1647.0,1981.0,1966.0,3036969.0,
1744.0,1647.0,1979.0,1964.0,3036972.0,
1743.0,1648.0,1976.0,1963.0,3036976.0,
1738.0,1648.0,1978.0,1966.0,3036980.0,
1743.0,1648.0,1977.0,1960.0,3036983.0,
1743.0,1649.0,1976.0,1962.0,3036987.0,
1743.0,1648.0,1976.0,1955.0,3036991.0,
1743.0,1648.0,1976.0,1957.0,3036994.0,
1740.0,1649.0,1974.0,1956.0,3036998.0,
1743.0,1649.0,1972.0,1945.0,3037002.0,
1743.0,1649.0,1974.0,1947.0,3037005.0,
1743.0,1648.0,1972.0,1946.0,3037009.0,
1743.0,1652.0,1972.0,1941.0,3037012.0,
1743.0,1651.0,1972.0,1937.0,3037016.0,
1742.0,1650.0,1969.0,1934.0,3037020.0,
1743.0,1651.0,1970.0,1931.0,3037023.0,
1743.0,1650.0,1969.0,1932.0,3037027.0,
1739.0,1651.0,1970.0,1930.0,3037031.0,
1742.0,1652.0,1970.0,1928.0,3037034.0,
1743.0,1649.0,1969.0,1931.0,3037038.0,
1743.0,1653.0,1970.0,1931.0,3037042.0,
1744.0,1650.0,1969.0,1932.0,3037045.0,
1744.0,1651.0,1969.0,1936.0,3037049.0,
1743.0,1651.0,1970.0,1932.0,3037052.0,
1743.0,1650.0,1967.0,1935.0,3037056.0,
1743.0,1653.0,1968.0,1938.0,3037060.0,
1743.0,1652.0,1968.0,1939.0,3037063.0,
1743.0,1644.0,1966.0,1939.0,3037067.0,
1744.0,1651.0,1963.0,1945.0,3037071.0,
1743.0,1652.0,1966.0,1946.0,3037074.0,
1739.0,1652.0,1962.0,1951.0,3037078.0,
1744.0,1652.0,1961.0,1957.0,3037081.0,
1742.0,1653.0,1960.0,1954.0,3037085.0,
1743.0,1652.0,1961.0,1960.0,3037089.0,
1743.0,1654.0,1959.0,1960.0,3037092.0,
1744.0,1654.0,1959.0,1961.0,3037096.0,
1743.0,1655.0,1955.0,1961.0,3037100.0,
1743.0,1654.0,1956.0,1960.0,3037103.0,
1745.0,1654.0,1953.0,1959.0,3037107.0,
1744.0,1654.0,1954.0,1962.0,3037111.0,
1743.0,1654.0,1952.0,1963.0,3037114.0,
1744.0,1654.0,1953.0,1963.0,3037118.0,
1743.0,1656.0,1955.0,1964.0,3037121.0,
1742.0,1653.0,1957.0,1962.0,3037125.0,
1743.0,1655.0,1956.0,1963.0,3037129.0,
1743.0,1654.0,1957.0,1963.0,3037132.0,
1744.0,1654.0,1956.0,1964.0,3037136.0,
1743.0,1654.0,1957.0,1964.0,3037140.0,
1744.0,1654.0,1959.0,1965.0,3037143.0,
1744.0,1653.0,1955.0,1967.0,3037147.0,
1738.0,1653.0,1955.0,1973.0,3037151.0,
1743.0,1655.0,1953.0,1976.0,3037154.0,
1743.0,1656.0,1954.0,1981.0,3037158.0,
1742.0,1653.0,1951.0,1987.0,3037161.0,
1743.0,1654.0,1950.0,1994.0,3037165.0,
1744.0,1653.0,1949.0,2003.0,3037169.0,
1743.0,1651.0,1947.0,2008.0,3037172.0,
1743.0,1653.0,1944.0,2020.0,3037176.0,
1742.0,1655.0,1945.0,2028.0,3037180.0,
1742.0,1654.0,1942.0,2035.0,3037183.0,
1742.0,1655.0,1941.0,2048.0,3037187.0,
1744.0,1653.0,1945.0,2056.0,3037191.0,
1746.0,1654.0,1944.0,2067.0,3037194.0,
1740.0,1656.0,1946.0,2073.0,3037198.0,
1744.0,1655.0,1949.0,2082.0,3037201.0,
1741.0,1655.0,1955.0,2090.0,3037205.0,
1742.0,1653.0,1958.0,2096.0,3037209.0,
1743.0,1656.0,1964.0,2104.0,3037212.0,
1743.0,1656.0,1971.0,2115.0,3037216.0,
1740.0,1654.0,1976.0,2121.0,3037220.0,
1743.0,1655.0,1982.0,2125.0,3037223.0,
1745.0,1656.0,1991.0,2137.0,3037227.0,
1744.0,1656.0,1998.0,2143.0,3037231.0,
1743.0,1655.0,2007.0,2149.0,3037234.0,
1744.0,1657.0,2014.0,2156.0,3037238.0,
1742.0,1659.0,2023.0,2162.0,3037241.0,
1744.0,1658.0,2033.0,2172.0,3037245.0,
1744.0,1659.0,2043.0,2179.0,3037249.0,
1739.0,1657.0,2053.0,2186.0,3037252.0,
1743.0,1657.0,2064.0,2197.0,3037256.0,
1742.0,1660.0,2071.0,2196.0,3037260.0,
1744.0,1659.0,2080.0,2204.0,3037263.0,
1742.0,1658.0,2091.0,2204.0,3037267.0,
1741.0,1658.0,2103.0,2211.0,3037270.0,
1743.0,1657.0,2107.0,2215.0,3037274.0,
1743.0,1660.0,2118.0,2217.0,3037278.0,
1744.0,1659.0,2124.0,2219.0,3037281.0,
1742.0,1658.0,2133.0,2215.0,3037285.0,
1744.0,1658.0,2139.0,2225.0,3037289.0,
1744.0,1659.0,2147.0,2225.0,3037292.0,
1747.0,1659.0,2152.0,2232.0,3037296.0,
1743.0,1661.0,2158.0,2234.0,3037300.0,
1741.0,1659.0,2162.0,2235.0,3037303.0,
1743.0,1660.0,2166.0,2238.0,3037307.0,
1743.0,1659.0,2170.0,2238.0,3037310.0,
1743.0,1659.0,2171.0,2243.0,3037314.0,
1743.0,1659.0,2174.0,2242.0,3037318.0,
1742.0,1659.0,2174.0,2239.0,3037321.0,
1743.0,1662.0,2176.0,2240.0,3037325.0,
1743.0,1661.0,2175.0,2238.0,3037329.0,
1743.0,1660.0,2176.0,2237.0,3037332.0,
1742.0,1661.0,2179.0,2232.0,3037336.0,
1743.0,1662.0,2177.0,2231.0,3037340.0,
1744.0,1660.0,2174.0,2230.0,3037343.0,
1744.0,1661.0,2172.0,2225.0,3037347.0,
1742.0,1661.0,2173.0,2224.0,3037350.0,
1743.0,1661.0,2171.0,2223.0,3037354.0,
1744.0,1661.0,2167.0,2221.0,3037358.0,
1744.0,1662.0,2167.0,2221.0,3037361.0,
1744.0,1662.0,2168.0,2219.0,3037365.0,
1743.0,1662.0,2166.0,2211.0,3037369.0,
1744.0,1662.0,2163.0,2213.0,3037372.0,
1742.0,1662.0,2159.0,2208.0,3037376.0,
1744.0,1661.0,2157.0,2202.0,3037379.0,
1744.0,1662.0,2152.0,2200.0,3037383.0,
1744.0,1662.0,2152.0,2198.0,3037387.0,
1743.0,1661.0,2145.0,2194.0,3037390.0,
1742.0,1664.0,2142.0,2188.0,3037394.0,
1743.0,1664.0,2138.0,2183.0,3037398.0,
1743.0,1664.0,2133.0,2175.0,3037401.0,
1745.0,1663.0,2127.0,2171.0,3037405.0,
1742.0,1662.0,2124.0,2166.0,3037409.0,
1745.0,1665.0,2118.0,2160.0,3037412.0,
1744.0,1662.0,2111.0,2154.0,3037416.0,
1744.0,1665.0,2107.0,2149.0,3037419.0,
1743.0,1663.0,2100.0,2142.0,3037423.0,
1743.0,1665.0,2094.0,2138.0,3037427.0,
1744.0,1665.0,2089.0,2132.0,3037430.0,
1745.0,1664.0,2086.0,2123.0,3037434.0,
1744.0,1667.0,2081.0,2118.0,3037438.0,
1744.0,1666.0,2078.0,2112.0,3037441.0,
1744.0,1666.0,2076.0,2109.0,3037445.0,
1744.0,1666.0,2073.0,2105.0,3037449.0,
1743.0,1666.0,2069.0,2100.0,3037452.0,
1743.0,1667.0,2067.0,2100.0,3037456.0,
1744.0,1667.0,2066.0,2095.0,3037459.0,
1743.0,1666.0,2065.0,2094.0,3037463.0,
1743.0,1666.0,2064.0,2093.0,3037467.0,
1743.0,1668.0,2062.0,2088.0,3037470.0,
1742.0,1667.0,2061.0,2083.0,3037474.0,
1743.0,1664.0,2067.0,2080.0,3037478.0,
1743.0,1668.0,2059.0,2075.0,3037481.0,
1744.0,1665.0,2061.0,2072.0,3037485.0,
1744.0,1667.0,2060.0,2069.0,3037489.0,
1743.0,1665.0,2059.0,2067.0,3037492.0,
1745.0,1666.0,2057.0,2067.0,3037496.0,
1741.0,1665.0,2060.0,2067.0,3037499.0,
1738.0,1667.0,2059.0,2066.0,3037503.0,
1743.0,1667.0,2061.0,2066.0,3037507.0,
1744.0,1666.0,2058.0,2062.0,3037510.0,
1744.0,1667.0,2061.0,2056.0,3037514.0,
1743.0,1667.0,2060.0,2059.0,3037518.0,
1743.0,1666.0,2061.0,2056.0,3037521.0,
1745.0,1665.0,2064.0,2052.0,3037525.0,
1743.0,1666.0,2067.0,2051.0,3037528.0,
1744.0,1661.0,2062.0,2048.0,3037532.0,
1744.0,1665.0,2063.0,2046.0,3037536.0,
1743.0,1666.0,2059.0,2042.0,3037539.0,
1741.0,1667.0,2063.0,2039.0,3037543.0,
1743.0,1664.0,2062.0,2041.0,3037547.0,
1743.0,1666.0,2065.0,2038.0,3037550.0,
1742.0,1667.0,2063.0,2034.0,3037554.0,
1747.0,1666.0,2062.0,2033.0,3037558.0,
1744.0,1667.0,2061.0,2029.0,3037561.0,
1743.0,1666.0,2061.0,2022.0,3037565.0,
1744.0,1667.0,2062.0,2022.0,3037568.0,
1745.0,1667.0,2063.0,2019.0,3037572.0,
1743.0,1667.0,2060.0,2017.0,3037576.0,
1743.0,1666.0,2060.0,2014.0,3037579.0,
1743.0,1667.0,2059.0,2010.0,3037583.0,
1744.0,1667.0,2055.0,2008.0,3037587.0,
1743.0,1663.0,2056.0,2005.0,3037590.0,
1743.0,1667.0,2054.0,2004.0,3037594.0,
1744.0,1665.0,2053.0,2001.0,3037598.0,
1743.0,1666.0,2052.0,2002.0,3037601.0,
1743.0,1673.0,2051.0,1999.0,3037605.0,
1743.0,1666.0,2049.0,2002.0,3037608.0,
1744.0,1666.0,2049.0,1999.0,3037612.0,
1745.0,1666.0,2047.0,2001.0,3037616.0,
1743.0,1666.0,2046.0,2001.0,3037619.0,
1744.0,1666.0,2042.0,2000.0,3037623.0,
1743.0,1664.0,2044.0,2004.0,3037627.0,
1744.0,1666.0,2041.0,1998.0,3037630.0,
1744.0,1665.0,2043.0,1997.0,3037634.0,
1740.0,1664.0,2040.0,1992.0,3037638.0,
1743.0,1665.0,2040.0,1988.0,3037641.0,
1744.0,1664.0,2039.0,1986.0,3037645.0,
1744.0,1666.0,2038.0,1983.0,3037648.0,
1743.0,1663.0,2037.0,1983.0,3037652.0,
1744.0,1665.0,2039.0,1983.0,3037656.0,
1747.0,1663.0,2037.0,1984.0,3037659.0,
1744.0,1665.0,2036.0,1982.0,3037663.0,
1744.0,1664.0,2038.0,1981.0,3037667.0,
1743.0,1665.0,2035.0,1976.0,3037670.0,
1743.0,1666.0,2035.0,1976.0,3037674.0,
1743.0,1664.0,2034.0,1975.0,3037677.0,
1743.0,1666.0,2033.0,1975.0,3037681.0,
1741.0,1662.0,2033.0,1975.0,3037685.0,
1743.0,1664.0,2033.0,1976.0,3037688.0,
1748.0,1663.0,2031.0,1970.0,3037692.0,
1745.0,1665.0,2031.0,1973.0,3037696.0,
1740.0,1663.0,2031.0,1971.0,3037699.0,
1743.0,1663.0,2027.0,1960.0,3037703.0,
1742.0,1662.0,2025.0,1971.0,3037707.0,
1743.0,1662.0,2024.0,1971.0,3037710.0,
1744.0,1663.0,2022.0,1973.0,3037714.0,
1743.0,1661.0,2020.0,1970.0,3037717.0,
1744.0,1661.0,2019.0,1973.0,3037721.0,
1743.0,1663.0,2018.0,1975.0,3037725.0,
1744.0,1662.0,2015.0,1975.0,3037728.0,
1742.0,1661.0,2015.0,1975.0,3037732.0,
1745.0,1662.0,2014.0,1976.0,3037736.0,
1743.0,1661.0,2013.0,1978.0,3037739.0,
1743.0,1662.0,2013.0,1976.0,3037743.0,
1744.0,1662.0,2013.0,1979.0,3037747.0,
1743.0,1663.0,2012.0,1979.0,3037750.0,
1744.0,1661.0,2011.0,1983.0,3037754.0,
1743.0,1663.0,2011.0,1978.0,3037757.0,
1743.0,1662.0,2011.0,1978.0,3037761.0,
1742.0,1661.0,2010.0,1976.0,3037765.0,
1743.0,1662.0,2012.0,1976.0,3037768.0,
1743.0,1661.0,2010.0,1974.0,3037772.0,
1743.0,1661.0,2007.0,1972.0,3037776.0,
1743.0,1661.0,2007.0,1973.0,3037779.0,
1745.0,1661.0,2008.0,1968.0,3037783.0,
1744.0,1661.0,2004.0,1970.0,3037787.0,
1743.0,1658.0,2002.0,1963.0,3037790.0,
1744.0,1659.0,1999.0,1963.0,3037794.0,
1742.0,1660.0,2000.0,1962.0,3037797.0,
1743.0,1660.0,2000.0,1960.0,3037801.0,
1743.0,1660.0,2000.0,1960.0,3037805.0,
1743.0,1662.0,1996.0,1957.0,3037808.0,
1744.0,1660.0,1995.0,1955.0,3037812.0,
1743.0,1659.0,1997.0,1959.0,3037816.0,
1743.0,1661.0,1995.0,1957.0,3037819.0,
1743.0,1660.0,1994.0,1957.0,3037823.0,
1742.0,1657.0,1994.0,1958.0,3037826.0,
1744.0,1660.0,1994.0,1956.0,3037830.0,
1743.0,1659.0,1993.0,1961.0,3037834.0,
1744.0,1660.0,1990.0,1960.0,3037837.0,
1746.0,1659.0,1989.0,1960.0,3037841.0,
1743.0,1660.0,1987.0,1965.0,3037845.0,
1747.0,1657.0,1985.0,1967.0,3037848.0,
1743.0,1658.0,1984.0,1969.0,3037852.0,
1741.0,1659.0,1987.0,1971.0,3037856.0,
1748.0,1658.0,1984.0,1976.0,3037859.0,
1742.0,1659.0,1983.0,1975.0,3037863.0,
1742.0,1661.0,1981.0,1975.0,3037866.0,
1743.0,1657.0,1982.0,1973.0,3037870.0,
1746.0,1659.0,1980.0,1974.0,3037874.0,
1743.0,1659.0,1980.0,1971.0,3037877.0,
1744.0,1660.0,1988.0,1969.0,3037881.0,
1745.0,1657.0,1979.0,1972.0,3037885.0,
1743.0,1658.0,1980.0,1971.0,3037888.0,
1743.0,1659.0,1979.0,1973.0,3037892.0,
1743.0,1660.0,1978.0,1972.0,3037896.0,
1743.0,1660.0,1979.0,1971.0,3037899.0,
1740.0,1658.0,1978.0,1971.0,3037903.0,
1744.0,1657.0,1976.0,1968.0,3037906.0,
1743.0,1660.0,1977.0,1969.0,3037910.0,
1743.0,1658.0,1976.0,1970.0,3037914.0,
1743.0,1659.0,1977.0,1968.0,3037917.0,
1744.0,1658.0,1977.0,1969.0,3037921.0,
1743.0,1660.0,1976.0,1972.0,3037925.0,
1740.0,1657.0,1975.0,1972.0,3037928.0,
1741.0,1658.0,1974.0,1972.0,3037932.0,
1742.0,1659.0,1974.0,1970.0,3037936.0,
1743.0,1658.0,1975.0,1975.0,3037939.0,
1742.0,1658.0,1975.0,1979.0,3037943.0,
1743.0,1659.0,1975.0,1984.0,3037946.0,
1743.0,1658.0,1971.0,1991.0,3037950.0,
1743.0,1658.0,1975.0,1997.0,3037954.0,
1736.0,1658.0,1978.0,2003.0,3037957.0,
1743.0,1657.0,1979.0,2005.0,3037961.0,
1743.0,1658.0,1980.0,2013.0,3037965.0,
1742.0,1658.0,1980.0,2019.0,3037968.0,
1743.0,1658.0,1982.0,2026.0,3037972.0,
1744.0,1658.0,1984.0,2033.0,3037976.0,
1743.0,1658.0,1984.0,2042.0,3037979.0,
1742.0,1657.0,1987.0,2050.0,3037983.0,
1746.0,1656.0,1987.0,2058.0,3037986.0,
1744.0,1660.0,1993.0,2065.0,3037990.0,
1744.0,1660.0,1995.0,2074.0,3037994.0,
1743.0,1657.0,1998.0,2084.0,3037997.0,
1743.0,1658.0,2003.0,2091.0,3038001.0,
1742.0,1657.0,2009.0,2101.0,3038005.0,
1742.0,1659.0,2015.0,2105.0,3038008.0,
1744.0,1657.0,2023.0,2114.0,3038012.0,
1743.0,1656.0,2030.0,2124.0,3038015.0,
1743.0,1656.0,2038.0,2131.0,3038019.0,
1749.0,1658.0,2046.0,2143.0,3038023.0,
1746.0,1657.0,2052.0,2148.0,3038026.0,
1743.0,1658.0,2059.0,2157.0,3038030.0,
1743.0,1657.0,2069.0,2169.0,3038034.0,
1743.0,1659.0,2078.0,2178.0,3038037.0,
1743.0,1658.0,2083.0,2187.0,3038041.0,
1743.0,1662.0,2091.0,2199.0,3038045.0,
1744.0,1657.0,2101.0,2206.0,3038048.0,
1741.0,1657.0,2111.0,2217.0,3038052.0,
1743.0,1656.0,2116.0,2225.0,3038055.0,
1742.0,1657.0,2127.0,2234.0,3038059.0,
1743.0,1656.0,2134.0,2244.0,3038063.0,
1743.0,1657.0,2144.0,2252.0,3038066.0,
1743.0,1656.0,2153.0,2262.0,3038070.0,
1743.0,1657.0,2163.0,2268.0,3038074.0,
1743.0,1657.0,2172.0,2273.0,3038077.0,
1744.0,1659.0,2178.0,2277.0,3038081.0,
1750.0,1657.0,2182.0,2285.0,3038085.0,
1745.0,1654.0,2187.0,2285.0,3038088.0,
1743.0,1655.0,2193.0,2290.0,3038092.0,
1743.0,1656.0,2195.0,2289.0,3038095.0,
1748.0,1656.0,2197.0,2292.0,3038099.0,
1745.0,1658.0,2200.0,2293.0,3038103.0,
1743.0,1657.0,2202.0,2291.0,3038106.0,
1743.0,1656.0,2205.0,2292.0,3038110.0,
1744.0,1656.0,2204.0,2290.0,3038114.0,
1744.0,1657.0,2210.0,2286.0,3038117.0,
1743.0,1657.0,2207.0,2286.0,3038121.0,
1744.0,1656.0,2207.0,2284.0,3038125.0,
1742.0,1655.0,2207.0,2281.0,3038128.0,
1744.0,1656.0,2207.0,2282.0,3038132.0,
1744.0,1656.0,2206.0,2277.0,3038135.0,
1743.0,1657.0,2205.0,2275.0,3038139.0,
1744.0,1656.0,2204.0,2271.0,3038143.0,
1744.0,1659.0,2205.0,2270.0,3038146.0,
1742.0,1658.0,2200.0,2261.0,3038150.0,
1744.0,1657.0,2200.0,2255.0,3038154.0,
1743.0,1655.0,2198.0,2251.0,3038157.0,
1743.0,1656.0,2197.0,2250.0,3038161.0,
1744.0,1657.0,2193.0,2245.0,3038164.0,
1743.0,1656.0,2187.0,2240.0,3038168.0,
1744.0,1652.0,2186.0,2233.0,3038172.0,
1743.0,1654.0,2182.0,2227.0,3038175.0,
1743.0,1656.0,2180.0,2220.0,3038179.0,
1743.0,1656.0,2178.0,2215.0,3038183.0,
1743.0,1655.0,2176.0,2206.0,3038186.0,
1743.0,1655.0,2172.0,2200.0,3038190.0,
1750.0,1656.0,2170.0,2197.0,3038194.0,
1742.0,1656.0,2168.0,2190.0,3038197.0,
1742.0,1655.0,2162.0,2183.0,3038201.0,
1743.0,1656.0,2159.0,2177.0,3038204.0,
1743.0,1654.0,2154.0,2169.0,3038208.0,
1744.0,1655.0,2152.0,2160.0,3038212.0,
1744.0,1655.0,2149.0,2156.0,3038215.0,
1743.0,1656.0,2147.0,2151.0,3038219.0,
1743.0,1656.0,2137.0,2146.0,3038223.0,
1744.0,1656.0,2134.0,2139.0,3038226.0,
1743.0,1657.0,2131.0,2135.0,3038230.0,
1742.0,1653.0,2126.0,2131.0,3038234.0,
1743.0,1654.0,2122.0,2123.0,3038237.0,
1743.0,1654.0,2122.0,2117.0,3038241.0,
1742.0,1656.0,2115.0,2117.0,3038244.0,
1743.0,1655.0,2115.0,2111.0,3038248.0,
1743.0,1657.0,2109.0,2110.0,3038252.0,
1744.0,1656.0,2109.0,2109.0,3038255.0,
1743.0,1655.0,2106.0,2107.0,3038259.0,
1744.0,1657.0,2104.0,2104.0,3038263.0,
1746.0,1657.0,2100.0,2102.0,3038266.0,
1743.0,1656.0,2100.0,2099.0,3038270.0,
1744.0,1654.0,2098.0,2096.0,3038273.0,
1742.0,1655.0,2095.0,2094.0,3038277.0,
1742.0,1658.0,2094.0,2089.0,3038281.0,
1743.0,1657.0,2092.0,2090.0,3038284.0,
1744.0,1655.0,2090.0,2083.0,3038288.0,
1744.0,1656.0,2092.0,2081.0,3038292.0,
1742.0,1654.0,2090.0,2076.0,3038295.0,
1743.0,1657.0,2091.0,2073.0,3038299.0,
1743.0,1655.0,2089.0,2073.0,3038303.0,
1745.0,1657.0,2090.0,2069.0,3038306.0,
1743.0,1654.0,2089.0,2072.0,3038310.0,
1743.0,1656.0,2088.0,2071.0,3038313.0,
1743.0,1656.0,2087.0,2071.0,3038317.0,
1745.0,1657.0,2088.0,2069.0,3038321.0,
1743.0,1653.0,2087.0,2069.0,3038324.0,
1741.0,1655.0,2085.0,2066.0,3038328.0,
1743.0,1654.0,2084.0,2067.0,3038332.0,
1743.0,1657.0,2087.0,2064.0,3038335.0,
1743.0,1655.0,2083.0,2065.0,3038339.0,
1744.0,1656.0,2085.0,2061.0,3038343.0,
1744.0,1656.0,2084.0,2060.0,3038346.0,
1743.0,1657.0,2084.0,2058.0,3038350.0,
1743.0,1655.0,2086.0,2056.0,3038353.0,
1743.0,1655.0,2085.0,2054.0,3038357.0,
1743.0,1655.0,2087.0,2054.0,3038361.0,
1743.0,1655.0,2085.0,2053.0,3038364.0,
1743.0,1654.0,2086.0,2051.0,3038368.0,
1743.0,1655.0,2088.0,2047.0,3038372.0,
1743.0,1654.0,2086.0,2044.0,3038375.0,
1742.0,1656.0,2087.0,2041.0,3038379.0,
1743.0,1655.0,2087.0,2040.0,3038383.0,
1745.0,1653.0,2086.0,2040.0,3038386.0,
1742.0,1655.0,2087.0,2036.0,3038390.0,
1743.0,1653.0,2087.0,2035.0,3038393.0,
1743.0,1654.0,2087.0,2032.0,3038397.0,
1742.0,1653.0,2090.0,2027.0,3038401.0,
1743.0,1655.0,2089.0,2024.0,3038404.0,
1742.0,1656.0,2088.0,2022.0,3038408.0,
1743.0,1655.0,2089.0,2020.0,3038412.0,
1744.0,1654.0,2085.0,2012.0,3038415.0,
1744.0,1654.0,2086.0,2005.0,3038419.0,
1743.0,1653.0,2083.0,2002.0,3038422.0,
1741.0,1654.0,2081.0,1996.0,3038426.0,
1743.0,1651.0,2078.0,1990.0,3038430.0,
1744.0,1655.0,2077.0,1985.0,3038433.0,
1742.0,1655.0,2073.0,1978.0,3038437.0,
1743.0,1652.0,2069.0,1975.0,3038441.0,
1743.0,1651.0,2069.0,1971.0,3038444.0,
1743.0,1655.0,2063.0,1967.0,3038448.0,
1743.0,1654.0,2065.0,1963.0,3038452.0,
1742.0,1655.0,2060.0,1962.0,3038455.0,
1744.0,1655.0,2061.0,1963.0,3038459.0,
1741.0,1655.0,2058.0,1962.0,3038462.0,
1743.0,1655.0,2052.0,1959.0,3038466.0,
1743.0,1655.0,2052.0,1958.0,3038470.0,
1743.0,1656.0,2049.0,1958.0,3038473.0,
1744.0,1653.0,2044.0,1958.0,3038477.0,
1743.0,1654.0,2043.0,1958.0,3038481.0,
1742.0,1654.0,2041.0,1957.0,3038484.0,
1742.0,1654.0,2038.0,1957.0,3038488.0,
1744.0,1652.0,2045.0,1955.0,3038492.0,
1743.0,1656.0,2034.0,1959.0,3038495.0,
1742.0,1655.0,2033.0,1956.0,3038499.0,
1741.0,1656.0,2031.0,1957.0,3038502.0,
1741.0,1653.0,2029.0,1956.0,3038506.0,
1742.0,1654.0,2028.0,1959.0,3038510.0,
1742.0,1655.0,2025.0,1957.0,3038513.0,
1743.0,1653.0,2027.0,1960.0,3038517.0,
1743.0,1654.0,2026.0,1961.0,3038521.0,
1742.0,1654.0,2026.0,1965.0,3038524.0,
1742.0,1657.0,2024.0,1969.0,3038528.0,
1743.0,1649.0,2023.0,1970.0,3038532.0,
1741.0,1655.0,2023.0,1970.0,3038535.0,
1742.0,1654.0,2021.0,1971.0,3038539.0,
1743.0,1652.0,2020.0,1975.0,3038542.0,
1744.0,1652.0,2018.0,1976.0,3038546.0,
1741.0,1653.0,2020.0,1977.0,3038550.0,
1743.0,1653.0,2019.0,1979.0,3038553.0,
1743.0,1654.0,2020.0,1982.0,3038557.0,
1742.0,1653.0,2017.0,1982.0,3038561.0,
1740.0,1653.0,2018.0,1987.0,3038564.0,
1743.0,1653.0,2017.0,1987.0,3038568.0,
1742.0,1654.0,2017.0,1985.0,3038571.0,
1743.0,1653.0,2018.0,1988.0,3038575.0,
1743.0,1652.0,2017.0,1989.0,3038579.0,
1744.0,1652.0,2018.0,1993.0,3038582.0,
1744.0,1654.0,2017.0,1990.0,3038586.0,
1743.0,1654.0,2018.0,1987.0,3038590.0,
1743.0,1652.0,2017.0,1986.0,3038593.0,
1742.0,1651.0,2016.0,1984.0,3038597.0,
1744.0,1652.0,2019.0,1982.0,3038601.0,
1743.0,1651.0,2018.0,1977.0,3038604.0,
1744.0,1653.0,2016.0,1978.0,3038608.0,
1742.0,1654.0,2015.0,1973.0,3038611.0,
1742.0,1651.0,2011.0,1968.0,3038615.0,
1742.0,1651.0,2012.0,1962.0,3038619.0,
1742.0,1652.0,2011.0,1964.0,3038622.0,
1743.0,1653.0,2005.0,1960.0,3038626.0,
1743.0,1653.0,2005.0,1960.0,3038630.0,
1742.0,1654.0,2002.0,1960.0,3038633.0,
1742.0,1650.0,1999.0,1959.0,3038637.0,
1743.0,1654.0,1998.0,1958.0,3038641.0,
1741.0,1653.0,1989.0,1959.0,3038644.0,
1742.0,1652.0,1992.0,1959.0,3038648.0,
1744.0,1653.0,1988.0,1959.0,3038651.0,
1742.0,1652.0,1987.0,1960.0,3038655.0,
1742.0,1652.0,1986.0,1960.0,3038659.0,
1742.0,1650.0,1985.0,1960.0,3038662.0,
1741.0,1651.0,1984.0,1958.0,3038666.0,
1742.0,1650.0,1980.0,1955.0,3038670.0,
1743.0,1650.0,1980.0,1952.0,3038673.0,
1742.0,1650.0,1980.0,1949.0,3038677.0,
1743.0,1652.0,1981.0,1946.0,3038681.0,
1743.0,1652.0,1982.0,1950.0,3038684.0,
1742.0,1651.0,1985.0,1944.0,3038688.0,
1742.0,1650.0,1984.0,1942.0,3038691.0,
1741.0,1652.0,1983.0,1946.0,3038695.0,
1743.0,1650.0,1983.0,1940.0,3038699.0,
1742.0,1651.0,1981.0,1944.0,3038702.0,
1742.0,1651.0,1980.0,1946.0,3038706.0,
1743.0,1652.0,1981.0,1940.0,3038710.0,
1741.0,1652.0,1977.0,1944.0,3038713.0,
1743.0,1650.0,1977.0,1945.0,3038717.0,
1743.0,1652.0,1980.0,1945.0,3038720.0,
1743.0,1651.0,1980.0,1947.0,3038724.0,
1742.0,1651.0,1979.0,1951.0,3038728.0,
1741.0,1649.0,1980.0,1957.0,3038731.0,
1742.0,1653.0,1982.0,1963.0,3038735.0,
1742.0,1653.0,1980.0,1969.0,3038739.0,
1743.0,1653.0,1983.0,1977.0,3038742.0,
1743.0,1652.0,1980.0,1984.0,3038746.0,
1742.0,1651.0,1981.0,1992.0,3038750.0,
1742.0,1651.0,1985.0,2002.0,3038753.0,
1741.0,1653.0,1986.0,2011.0,3038757.0,
1741.0,1651.0,1987.0,2021.0,3038760.0,
1740.0,1652.0,1990.0,2033.0,3038764.0,
1742.0,1653.0,1992.0,2046.0,3038768.0,
1742.0,1653.0,1992.0,2058.0,3038771.0,
1742.0,1652.0,1995.0,2070.0,3038775.0,
1742.0,1653.0,2001.0,2081.0,3038779.0,
1743.0,1653.0,2000.0,2093.0,3038782.0,
1741.0,1652.0,2005.0,2098.0,3038786.0,
1742.0,1651.0,2011.0,2109.0,3038790.0,
1742.0,1649.0,2016.0,2114.0,3038793.0,
1742.0,1653.0,2019.0,2122.0,3038797.0,
1741.0,1652.0,2024.0,2132.0,3038800.0,
1742.0,1652.0,2033.0,2140.0,3038804.0,
1742.0,1654.0,2039.0,2149.0,3038808.0,
1742.0,1653.0,2044.0,2157.0,3038811.0,
1742.0,1654.0,2052.0,2168.0,3038815.0,
1741.0,1652.0,2062.0,2180.0,3038819.0,
1737.0,1652.0,2071.0,2190.0,3038822.0,
1742.0,1654.0,2080.0,2199.0,3038826.0,
1742.0,1653.0,2089.0,2207.0,3038830.0,
1742.0,1653.0,2101.0,2215.0,3038833.0,
1736.0,1652.0,2114.0,2222.0,3038837.0,
1741.0,1651.0,2122.0,2232.0,3038840.0,
1742.0,1652.0,2132.0,2238.0,3038844.0,
1742.0,1654.0,2143.0,2246.0,3038848.0,
1743.0,1654.0,2151.0,2251.0,3038851.0,
1741.0,1653.0,2161.0,2260.0,3038855.0,
1743.0,1652.0,2169.0,2268.0,3038859.0,
1742.0,1652.0,2180.0,2277.0,3038862.0,
1739.0,1652.0,2184.0,2284.0,3038866.0,
1742.0,1653.0,2194.0,2293.0,3038869.0,
1741.0,1652.0,2203.0,2300.0,3038873.0,
1742.0,1651.0,2208.0,2307.0,3038877.0,
1743.0,1652.0,2217.0,2311.0,3038880.0,
1742.0,1653.0,2221.0,2320.0,3038884.0,
1739.0,1652.0,2226.0,2323.0,3038888.0,
1741.0,1651.0,2232.0,2326.0,3038891.0,
1744.0,1651.0,2235.0,2333.0,3038895.0,
1741.0,1649.0,2240.0,2335.0,3038899.0,
1743.0,1654.0,2245.0,2337.0,3038902.0,
1743.0,1651.0,2246.0,2339.0,3038906.0,
1743.0,1649.0,2250.0,2341.0,3038909.0,
1743.0,1653.0,2251.0,2338.0,3038913.0,
1742.0,1653.0,2252.0,2334.0,3038917.0,
1743.0,1651.0,2250.0,2333.0,3038920.0,
1744.0,1650.0,2249.0,2329.0,3038924.0,
1743.0,1649.0,2249.0,2326.0,3038928.0,
1743.0,1650.0,2246.0,2323.0,3038931.0,
1745.0,1651.0,2245.0,2325.0,3038935.0,
1750.0,1653.0,2243.0,2312.0,3038939.0,
1742.0,1651.0,2243.0,2312.0,3038942.0,
1742.0,1650.0,2237.0,2306.0,3038946.0,
1743.0,1650.0,2235.0,2299.0,3038949.0,
1742.0,1650.0,2232.0,2295.0,3038953.0,
1733.0,1650.0,2229.0,2288.0,3038957.0,
1742.0,1649.0,2228.0,2281.0,3038960.0,
1742.0,1650.0,2224.0,2276.0,3038964.0,
1743.0,1651.0,2229.0,2269.0,3038968.0,
1742.0,1657.0,2219.0,2263.0,3038971.0,
1742.0,1651.0,2217.0,2257.0,3038975.0,
1742.0,1651.0,2215.0,2250.0,3038979.0,
1742.0,1651.0,2210.0,2242.0,3038982.0,
1743.0,1649.0,2208.0,2234.0,3038986.0,
1744.0,1650.0,2204.0,2226.0,3038989.0,
1742.0,1649.0,2198.0,2217.0,3038993.0,
1742.0,1649.0,2194.0,2209.0,3038997.0,
1742.0,1655.0,2191.0,2202.0,3039000.0,
1741.0,1651.0,2184.0,2193.0,3039004.0,
1742.0,1650.0,2179.0,2187.0,3039008.0,
1742.0,1649.0,2173.0,2179.0,3039011.0,
1742.0,1650.0,2168.0,2171.0,3039015.0,
1739.0,1650.0,2162.0,2161.0,3039018.0,
1748.0,1650.0,2155.0,2152.0,3039022.0,
1741.0,1648.0,2151.0,2144.0,3039026.0,
1741.0,1649.0,2146.0,2141.0,3039029.0,
1745.0,1649.0,2143.0,2136.0,3039033.0,
1741.0,1650.0,2138.0,2129.0,3039037.0,
1742.0,1649.0,2136.0,2124.0,3039040.0,
1741.0,1649.0,2133.0,2118.0,3039044.0,
1742.0,1647.0,2128.0,2118.0,3039048.0,
1741.0,1649.0,2123.0,2115.0,3039051.0,
1743.0,1649.0,2122.0,2111.0,3039055.0,
1741.0,1648.0,2122.0,2106.0,3039058.0,
1742.0,1649.0,2116.0,2106.0,3039062.0,
1741.0,1649.0,2117.0,2103.0,3039066.0,
1741.0,1649.0,2117.0,2104.0,3039069.0,
1742.0,1650.0,2115.0,2105.0,3039073.0,
1741.0,1645.0,2112.0,2105.0,3039077.0,
1741.0,1647.0,2111.0,2101.0,3039080.0,
1739.0,1650.0,2111.0,2100.0,3039084.0,
1742.0,1647.0,2110.0,2097.0,3039088.0,
1741.0,1648.0,2109.0,2097.0,3039091.0,
1740.0,1650.0,2106.0,2094.0,3039095.0,
1741.0,1649.0,2110.0,2093.0,3039098.0,
1741.0,1647.0,2111.0,2096.0,3039102.0,
1741.0,1648.0,2111.0,2093.0,3039106.0,
1741.0,1649.0,2111.0,2092.0,3039109.0,
1740.0,1647.0,2112.0,2087.0,3039113.0,
1741.0,1648.0,2110.0,2086.0,3039117.0,
1739.0,1648.0,2114.0,2082.0,3039120.0,
1741.0,1647.0,2116.0,2082.0,3039124.0,
1736.0,1650.0,2114.0,2079.0,3039128.0,
1741.0,1648.0,2114.0,2075.0,3039131.0,
1741.0,1648.0,2116.0,2073.0,3039135.0,
1741.0,1647.0,2119.0,2068.0,3039138.0,
1740.0,1649.0,2119.0,2066.0,3039142.0,
1741.0,1649.0,2120.0,2061.0,3039146.0,
1741.0,1647.0,2120.0,2055.0,3039149.0,
1741.0,1648.0,2123.0,2051.0,3039153.0,
1741.0,1648.0,2123.0,2050.0,3039157.0,
1740.0,1648.0,2125.0,2044.0,3039160.0,
1741.0,1648.0,2122.0,2040.0,3039164.0,
1741.0,1648.0,2120.0,2036.0,3039167.0,
1740.0,1648.0,2119.0,2034.0,3039171.0,
1741.0,1647.0,2118.0,2030.0,3039175.0,
1741.0,1647.0,2117.0,2024.0,3039178.0,
1740.0,1648.0,2115.0,2025.0,3039182.0,
1740.0,1648.0,2116.0,2021.0,3039186.0,
1741.0,1647.0,2116.0,2019.0,3039189.0,
1740.0,1645.0,2115.0,2019.0,3039193.0,
1741.0,1649.0,2112.0,2021.0,3039197.0,
1741.0,1646.0,2112.0,2015.0,3039200.0,
1741.0,1648.0,2111.0,2015.0,3039204.0,
1741.0,1647.0,2114.0,2012.0,3039207.0,
1741.0,1649.0,2113.0,2013.0,3039211.0,
1740.0,1649.0,2110.0,2009.0,3039215.0,
1740.0,1648.0,2109.0,2008.0,3039218.0,
1741.0,1648.0,2110.0,2007.0,3039222.0,
1747.0,1648.0,2107.0,2006.0,3039226.0,
1740.0,1649.0,2104.0,2008.0,3039229.0,
1741.0,1648.0,2099.0,2009.0,3039233.0,
1740.0,1647.0,2097.0,2009.0,3039237.0,
1739.0,1648.0,2094.0,2008.0,3039240.0,
1741.0,1648.0,2089.0,2006.0,3039244.0,
1739.0,1642.0,2085.0,2005.0,3039247.0,
1740.0,1647.0,2083.0,2004.0,3039251.0,
1740.0,1647.0,2081.0,2001.0,3039255.0,
1739.0,1647.0,2075.0,1998.0,3039258.0,
1740.0,1649.0,2074.0,1996.0,3039262.0,
1742.0,1645.0,2072.0,1991.0,3039266.0,
1740.0,1649.0,2071.0,1990.0,3039269.0,
1741.0,1647.0,2068.0,1988.0,3039273.0,
1740.0,1649.0,2064.0,1990.0,3039277.0,
1741.0,1642.0,2063.0,1987.0,3039280.0,
1740.0,1647.0,2061.0,1986.0,3039284.0,
1739.0,1649.0,2057.0,1983.0,3039287.0,
1741.0,1646.0,2058.0,1984.0,3039291.0,
1740.0,1647.0,2047.0,1980.0,3039295.0,
1739.0,1648.0,2042.0,1980.0,3039298.0,
1740.0,1647.0,2040.0,1977.0,3039302.0,
1740.0,1645.0,2036.0,1979.0,3039306.0,
1740.0,1646.0,2034.0,1977.0,3039309.0,
1740.0,1647.0,2030.0,1978.0,3039313.0,
1744.0,1647.0,2028.0,1977.0,3039316.0,
1740.0,1647.0,2026.0,1981.0,3039320.0,
1740.0,1647.0,2025.0,1982.0,3039324.0,
1738.0,1648.0,2031.0,1984.0,3039327.0,
1741.0,1648.0,2024.0,1987.0,3039331.0,
1739.0,1648.0,2025.0,1989.0,3039335.0,
1739.0,1645.0,2022.0,1989.0,3039338.0,
1740.0,1645.0,2024.0,1993.0,3039342.0,
1740.0,1646.0,2024.0,1990.0,3039346.0,
1740.0,1645.0,2026.0,1990.0,3039349.0,
1738.0,1646.0,2024.0,1990.0,3039353.0,
1739.0,1647.0,2029.0,1989.0,3039356.0,
1739.0,1646.0,2030.0,1989.0,3039360.0,
1738.0,1646.0,2027.0,1987.0,3039364.0,
1739.0,1648.0,2027.0,1988.0,3039367.0,
1742.0,1648.0,2028.0,1984.0,3039371.0,
1739.0,1648.0,2030.0,1979.0,3039375.0,
1739.0,1648.0,2030.0,1985.0,3039378.0,
1740.0,1648.0,2030.0,1987.0,3039382.0,
1739.0,1647.0,2034.0,1984.0,3039386.0,
1740.0,1647.0,2030.0,1981.0,3039389.0,
1739.0,1648.0,2031.0,1980.0,3039393.0,
1740.0,1645.0,2035.0,1981.0,3039396.0,
1739.0,1647.0,2032.0,1979.0,3039400.0,
1739.0,1648.0,2033.0,1981.0,3039404.0,
1736.0,1647.0,2034.0,1978.0,3039407.0,
1739.0,1647.0,2034.0,1979.0,3039411.0,
1739.0,1646.0,2031.0,1976.0,3039415.0,
1739.0,1646.0,2028.0,1975.0,3039418.0,
1738.0,1647.0,2027.0,1972.0,3039422.0,
1742.0,1649.0,2025.0,1972.0,3039426.0,
1740.0,1645.0,2023.0,1971.0,3039429.0,
1739.0,1646.0,2020.0,1971.0,3039433.0,
1739.0,1647.0,2017.0,1966.0,3039436.0,
1740.0,1646.0,2016.0,1962.0,3039440.0,
1737.0,1646.0,2018.0,1960.0,3039444.0,
1740.0,1647.0,2009.0,1957.0,3039447.0,
1740.0,1644.0,2014.0,1952.0,3039451.0,
1740.0,1646.0,2011.0,1953.0,3039455.0,
1739.0,1649.0,2011.0,1952.0,3039458.0,
1739.0,1645.0,2009.0,1947.0,3039462.0,
1735.0,1645.0,2006.0,1946.0,3039466.0,
1739.0,1644.0,2003.0,1942.0,3039469.0,
1740.0,1644.0,1999.0,1941.0,3039473.0,
1739.0,1645.0,1997.0,1936.0,3039476.0,
1739.0,1646.0,1995.0,1936.0,3039480.0,
1739.0,1646.0,1993.0,1934.0,3039484.0,
1739.0,1644.0,1989.0,1928.0,3039487.0,
1738.0,1645.0,1987.0,1930.0,3039491.0,
1740.0,1645.0,1986.0,1925.0,3039495.0,
1739.0,1646.0,1984.0,1925.0,3039498.0,
1739.0,1646.0,1984.0,1925.0,3039502.0,
1733.0,1645.0,1986.0,1927.0,3039505.0,
1739.0,1646.0,1986.0,1931.0,3039509.0,
1738.0,1644.0,1985.0,1933.0,3039513.0,
1738.0,1644.0,1986.0,1936.0,3039516.0,
1741.0,1647.0,1985.0,1939.0,3039520.0,
1740.0,1645.0,1987.0,1945.0,3039524.0,
1739.0,1645.0,1986.0,1951.0,3039527.0,
1739.0,1645.0,1985.0,1955.0,3039531.0,
1738.0,1646.0,1984.0,1960.0,3039535.0,
1738.0,1646.0,1982.0,1964.0,3039538.0,
1739.0,1646.0,1978.0,1969.0,3039542.0,
1738.0,1646.0,1979.0,1973.0,3039545.0,
1740.0,1646.0,1975.0,1977.0,3039549.0,
1739.0,1645.0,1979.0,1980.0,3039553.0,
1733.0,1645.0,1978.0,1986.0,3039556.0,
1739.0,1646.0,1981.0,1991.0,3039560.0,
1739.0,1647.0,1975.0,1994.0,3039564.0,
1738.0,1647.0,1977.0,2000.0,3039567.0,
1738.0,1644.0,1979.0,2003.0,3039571.0,
1739.0,1646.0,1977.0,2007.0,3039575.0,
1739.0,1644.0,1979.0,2009.0,3039578.0,
1740.0,1644.0,1980.0,2014.0,3039582.0,
1739.0,1644.0,1982.0,2018.0,3039585.0,
1738.0,1646.0,1985.0,2024.0,3039589.0,
1740.0,1645.0,1982.0,2034.0,3039593.0,
1738.0,1646.0,1988.0,2041.0,3039596.0,
1738.0,1647.0,1990.0,2051.0,3039600.0,
1738.0,1645.0,1993.0,2060.0,3039604.0,
1738.0,1647.0,1997.0,2067.0,3039607.0,
1739.0,1645.0,1999.0,2079.0,3039611.0,
1737.0,1646.0,2006.0,2088.0,3039615.0,
1739.0,1647.0,2010.0,2099.0,3039618.0,
1741.0,1644.0,2017.0,2108.0,3039622.0,
1739.0,1644.0,2023.0,2116.0,3039625.0,
1739.0,1646.0,2031.0,2127.0,3039629.0,
1739.0,1646.0,2041.0,2138.0,3039633.0,
1739.0,1646.0,2046.0,2145.0,3039636.0,
1738.0,1647.0,2066.0,2155.0,3039640.0,
1740.0,1646.0,2074.0,2161.0,3039644.0,
1740.0,1645.0,2086.0,2167.0,3039647.0,
1739.0,1647.0,2100.0,2175.0,3039651.0,
1733.0,1646.0,2111.0,2182.0,3039654.0,
1739.0,1645.0,2125.0,2192.0,3039658.0,
1740.0,1647.0,2139.0,2202.0,3039662.0,
1739.0,1645.0,2149.0,2212.0,3039665.0,
1739.0,1644.0,2164.0,2222.0,3039669.0,
1737.0,1645.0,2178.0,2235.0,3039673.0,
1739.0,1647.0,2186.0,2246.0,3039676.0,
1738.0,1645.0,2196.0,2257.0,3039680.0,
1739.0,1646.0,2208.0,2267.0,3039684.0,
1737.0,1645.0,2220.0,2273.0,3039687.0,
1744.0,1646.0,2226.0,2284.0,3039691.0,
1740.0,1645.0,2234.0,2291.0,3039694.0,
1740.0,1645.0,2239.0,2299.0,3039698.0,
1736.0,1644.0,2247.0,2303.0,3039702.0,
1739.0,1645.0,2250.0,2309.0,3039705.0,
1739.0,1645.0,2256.0,2314.0,3039709.0,
1738.0,1647.0,2259.0,2322.0,3039713.0,
1739.0,1639.0,2261.0,2327.0,3039716.0,
1739.0,1645.0,2265.0,2332.0,3039720.0,
1740.0,1646.0,2267.0,2338.0,3039724.0,
1738.0,1646.0,2268.0,2342.0,3039727.0,
1739.0,1645.0,2271.0,2347.0,3039731.0,
1740.0,1645.0,2272.0,2347.0,3039734.0,
1740.0,1645.0,2269.0,2351.0,3039738.0,
1739.0,1645.0,2270.0,2354.0,3039742.0,
1740.0,1645.0,2275.0,2353.0,3039745.0,
1739.0,1642.0,2275.0,2353.0,3039749.0,
1739.0,1645.0,2279.0,2352.0,3039753.0,
1738.0,1646.0,2276.0,2352.0,3039756.0,
1738.0,1647.0,2277.0,2351.0,3039760.0,
1740.0,1644.0,2275.0,2350.0,3039763.0,
1739.0,1644.0,2274.0,2346.0,3039767.0,
1739.0,1645.0,2272.0,2344.0,3039771.0,
1740.0,1645.0,2272.0,2336.0,3039774.0,
1739.0,1644.0,2267.0,2332.0,3039778.0,
1738.0,1644.0,2268.0,2324.0,3039782.0,
1740.0,1644.0,2264.0,2319.0,3039785.0,
1738.0,1644.0,2263.0,2313.0,3039789.0,
1738.0,1646.0,2263.0,2308.0,3039793.0,
1739.0,1647.0,2258.0,2301.0,3039796.0,
1739.0,1645.0,2255.0,2296.0,3039800.0,
1739.0,1643.0,2252.0,2287.0,3039803.0,
1740.0,1646.0,2250.0,2281.0,3039807.0,
1746.0,1643.0,2245.0,2268.0,3039811.0,
1739.0,1641.0,2243.0,2261.0,3039814.0,
1739.0,1643.0,2238.0,2253.0,3039818.0,
1739.0,1644.0,2235.0,2244.0,3039822.0,
1738.0,1644.0,2232.0,2234.0,3039825.0,
1740.0,1645.0,2226.0,2220.0,3039829.0,
1737.0,1644.0,2224.0,2219.0,3039833.0,
1738.0,1642.0,2220.0,2209.0,3039836.0,
1741.0,1641.0,2218.0,2202.0,3039840.0,
1738.0,1643.0,2211.0,2195.0,3039843.0,
1739.0,1642.0,2209.0,2190.0,3039847.0,
1739.0,1645.0,2207.0,2181.0,3039851.0,
1739.0,1646.0,2199.0,2174.0,3039854.0,
1745.0,1643.0,2196.0,2170.0,3039858.0,
1739.0,1643.0,2190.0,2164.0,3039862.0,
1738.0,1649.0,2183.0,2158.0,3039865.0,
1739.0,1640.0,2178.0,2153.0,3039869.0,
1739.0,1643.0,2175.0,2149.0,3039873.0,
1739.0,1642.0,2170.0,2142.0,3039876.0,
1739.0,1642.0,2162.0,2141.0,3039880.0,
1737.0,1646.0,2162.0,2137.0,3039883.0,
1739.0,1642.0,2157.0,2133.0,3039887.0,
1740.0,1642.0,2157.0,2130.0,3039891.0,
1739.0,1641.0,2149.0,2125.0,3039894.0,
1738.0,1640.0,2142.0,2124.0,3039898.0,
1739.0,1644.0,2142.0,2120.0,3039902.0,
1741.0,1643.0,2140.0,2113.0,3039905.0,
1739.0,1643.0,2139.0,2110.0,3039909.0,
1741.0,1641.0,2131.0,2104.0,3039913.0,
1739.0,1642.0,2135.0,2099.0,3039916.0,
1738.0,1642.0,2136.0,2096.0,3039920.0,
1739.0,1644.0,2135.0,2093.0,3039923.0,
1739.0,1645.0,2133.0,2093.0,3039927.0,
1739.0,1643.0,2135.0,2090.0,3039931.0,
1739.0,1640.0,2132.0,2089.0,3039934.0,
1739.0,1641.0,2134.0,2090.0,3039938.0,
1739.0,1641.0,2134.0,2088.0,3039942.0,
1738.0,1640.0,2133.0,2092.0,3039945.0,
1739.0,1641.0,2135.0,2095.0,3039949.0,
1738.0,1642.0,2135.0,2095.0,3039952.0,
1740.0,1637.0,2134.0,2094.0,3039956.0,
1739.0,1641.0,2133.0,2092.0,3039960.0,
1739.0,1641.0,2134.0,2090.0,3039963.0,
1739.0,1641.0,2133.0,2091.0,3039967.0,
1737.0,1642.0,2133.0,2088.0,3039971.0,
1739.0,1642.0,2135.0,2089.0,3039974.0,
1739.0,1642.0,2132.0,2088.0,3039978.0,
1742.0,1639.0,2135.0,2091.0,3039982.0,
1739.0,1634.0,2132.0,2085.0,3039985.0,
1739.0,1642.0,2132.0,2086.0,3039989.0,
1739.0,1643.0,2132.0,2077.0,3039992.0,
1738.0,1642.0,2131.0,2084.0,3039996.0,
1738.0,1638.0,2130.0,2082.0,3040000.0,
1738.0,1638.0,2131.0,2081.0,3040003.0,
1739.0,1640.0,2132.0,2074.0,3040007.0,
1739.0,1640.0,2130.0,2071.0,3040011.0,
1739.0,1640.0,2134.0,2062.0,3040014.0,
1739.0,1641.0,2133.0,2053.0,3040018.0,
1738.0,1639.0,2134.0,2052.0,3040022.0,
1739.0,1641.0,2135.0,2038.0,3040025.0,
1740.0,1641.0,2127.0,2036.0,3040029.0,
1739.0,1640.0,2135.0,2027.0,3040032.0,
1739.0,1639.0,2131.0,2020.0,3040036.0,
1734.0,1642.0,2130.0,2018.0,3040040.0,
1739.0,1641.0,2125.0,2011.0,3040043.0,
1739.0,1639.0,2124.0,2013.0,3040047.0,
1737.0,1641.0,2121.0,2011.0,3040051.0,
1739.0,1642.0,2120.0,2006.0,3040054.0,
1741.0,1639.0,2119.0,2007.0,3040058.0,
1738.0,1640.0,2115.0,2007.0,3040062.0,
1738.0,1640.0,2112.0,2008.0,3040065.0,
1738.0,1640.0,2112.0,2005.0,3040069.0,
1739.0,1640.0,2110.0,2002.0,3040072.0,
1739.0,1641.0,2108.0,2001.0,3040076.0,
1739.0,1639.0,2106.0,2001.0,3040080.0,
1738.0,1640.0,2107.0,1998.0,3040083.0,
1739.0,1641.0,2102.0,1996.0,3040087.0,
1739.0,1642.0,2097.0,1994.0,3040091.0,
1738.0,1641.0,2095.0,1993.0,3040094.0,
1740.0,1641.0,2095.0,1990.0,3040098.0,
1737.0,1641.0,2090.0,1990.0,3040101.0,
1739.0,1640.0,2090.0,1987.0,3040105.0,
1739.0,1640.0,2086.0,1986.0,3040109.0,
1738.0,1639.0,2087.0,1985.0,3040112.0,
1739.0,1641.0,2090.0,1982.0,3040116.0,
1738.0,1639.0,2081.0,1983.0,3040120.0,
1739.0,1639.0,2078.0,1980.0,3040123.0,
1738.0,1640.0,2074.0,1979.0,3040127.0,
1738.0,1640.0,2069.0,1977.0,3040131.0,
1739.0,1645.0,2068.0,1977.0,3040134.0,
1738.0,1640.0,2064.0,1977.0,3040138.0,
1746.0,1640.0,2063.0,1974.0,3040141.0,
1738.0,1641.0,2062.0,1977.0,3040145.0,
1740.0,1640.0,2056.0,1978.0,3040149.0,
1739.0,1640.0,2056.0,1977.0,3040152.0,
1741.0,1639.0,2052.0,1973.0,3040156.0,
1739.0,1640.0,2049.0,1974.0,3040160.0,
1739.0,1639.0,2047.0,1970.0,3040163.0,
1738.0,1639.0,2044.0,1971.0,3040167.0,
1736.0,1639.0,2043.0,1963.0,3040171.0,
1738.0,1640.0,2043.0,1963.0,3040174.0,
1739.0,1640.0,2043.0,1963.0,3040178.0,
1738.0,1638.0,2042.0,1963.0,3040181.0,
1738.0,1638.0,2042.0,1960.0,3040185.0,
1738.0,1641.0,2042.0,1963.0,3040189.0,
1739.0,1637.0,2041.0,1959.0,3040192.0,
1737.0,1638.0,2039.0,1960.0,3040196.0,
1738.0,1637.0,2037.0,1959.0,3040200.0,
1738.0,1635.0,2034.0,1959.0,3040203.0,
1739.0,1638.0,2035.0,1961.0,3040207.0,
1738.0,1639.0,2037.0,1964.0,3040211.0,
1738.0,1640.0,2035.0,1963.0,3040214.0,
1739.0,1638.0,2034.0,1964.0,3040218.0,
1739.0,1641.0,2032.0,1971.0,3040221.0,
1738.0,1641.0,2035.0,1968.0,3040225.0,
1738.0,1637.0,2033.0,1967.0,3040229.0,
1737.0,1639.0,2034.0,1966.0,3040232.0,
1739.0,1640.0,2032.0,1965.0,3040236.0,
1739.0,1636.0,2031.0,1968.0,3040240.0,
1738.0,1640.0,2031.0,1965.0,3040243.0,
1739.0,1637.0,2030.0,1968.0,3040247.0,
1740.0,1639.0,2027.0,1966.0,3040251.0,
1738.0,1638.0,2023.0,1963.0,3040254.0,
1737.0,1639.0,2023.0,1962.0,3040258.0,
1737.0,1638.0,2020.0,1960.0,3040261.0,
1736.0,1638.0,2019.0,1960.0,3040265.0,
1739.0,1638.0,2018.0,1962.0,3040269.0,
1738.0,1637.0,2014.0,1963.0,3040272.0,
1738.0,1638.0,2015.0,1967.0,3040276.0,
1739.0,1639.0,2009.0,1967.0,3040280.0,
1739.0,1636.0,2008.0,1970.0,3040283.0,
1737.0,1638.0,2004.0,1971.0,3040287.0,
1733.0,1638.0,2005.0,1975.0,3040290.0,
1738.0,1637.0,2003.0,1970.0,3040294.0,
1738.0,1637.0,2001.0,1972.0,3040298.0,
1740.0,1638.0,2001.0,1970.0,3040301.0,
1740.0,1638.0,1999.0,1970.0,3040305.0,
1737.0,1639.0,2004.0,1972.0,3040309.0,
1738.0,1639.0,1998.0,1974.0,3040312.0,
1739.0,1638.0,1996.0,1971.0,3040316.0,
1737.0,1637.0,1994.0,1968.0,3040320.0,
1739.0,1638.0,1996.0,1966.0,3040323.0,
1738.0,1643.0,1997.0,1967.0,3040327.0,
1739.0,1637.0,1997.0,1966.0,3040330.0,
1737.0,1639.0,2000.0,1961.0,3040334.0,
1737.0,1635.0,2001.0,1959.0,3040338.0,
1738.0,1637.0,2000.0,1959.0,3040341.0,
1739.0,1636.0,2001.0,1955.0,3040345.0,
1737.0,1636.0,2001.0,1958.0,3040349.0,
1738.0,1637.0,2002.0,1956.0,3040352.0,
1738.0,1637.0,2005.0,1954.0,3040356.0,
1738.0,1637.0,2004.0,1955.0,3040360.0,
1736.0,1637.0,2007.0,1955.0,3040363.0,
1732.0,1637.0,2004.0,1956.0,3040367.0,
1738.0,1638.0,2007.0,1954.0,3040370.0,
1740.0,1637.0,2003.0,1950.0,3040374.0,
1739.0,1637.0,2006.0,1952.0,3040378.0,
1739.0,1638.0,2000.0,1950.0,3040381.0,
1738.0,1636.0,2001.0,1953.0,3040385.0,
1738.0,1638.0,1999.0,1958.0,3040389.0,
1739.0,1636.0,2001.0,1958.0,3040392.0,
1734.0,1637.0,2000.0,1959.0,3040396.0,
1738.0,1637.0,1999.0,1961.0,3040400.0,
1739.0,1636.0,1999.0,1961.0,3040403.0,
1739.0,1638.0,1998.0,1966.0,3040407.0,
1738.0,1639.0,1997.0,1968.0,3040410.0,
1739.0,1637.0,1994.0,1974.0,3040414.0,
1738.0,1637.0,1996.0,1981.0,3040418.0,
1738.0,1638.0,1992.0,1987.0,3040421.0,
1739.0,1638.0,1989.0,1993.0,3040425.0,
1739.0,1638.0,1988.0,2000.0,3040429.0,
1738.0,1636.0,1987.0,2011.0,3040432.0,
1739.0,1636.0,1985.0,2016.0,3040436.0,
1738.0,1637.0,1986.0,2025.0,3040439.0,
1738.0,1639.0,1988.0,2034.0,3040443.0,
1739.0,1637.0,1989.0,2041.0,3040447.0,
1738.0,1638.0,1988.0,2047.0,3040450.0,
1737.0,1640.0,1994.0,2056.0,3040454.0,
1744.0,1637.0,1993.0,2067.0,3040458.0,
1738.0,1638.0,1995.0,2073.0,3040461.0,
1738.0,1638.0,1999.0,2082.0,3040465.0,
1738.0,1639.0,2002.0,2089.0,3040469.0,
1739.0,1638.0,2006.0,2102.0,3040472.0,
1738.0,1639.0,2010.0,2111.0,3040476.0,
1740.0,1639.0,2016.0,2121.0,3040479.0,
1739.0,1639.0,2023.0,2132.0,3040483.0,
1739.0,1639.0,2030.0,2145.0,3040487.0,
1739.0,1638.0,2040.0,2152.0,3040490.0,
1738.0,1638.0,2046.0,2162.0,3040494.0,
1739.0,1637.0,2052.0,2172.0,3040498.0,
1739.0,1639.0,2068.0,2187.0,3040501.0,
1737.0,1638.0,2073.0,2197.0,3040505.0,
1741.0,1638.0,2085.0,2208.0,3040509.0,
1738.0,1639.0,2098.0,2219.0,3040512.0,
1739.0,1639.0,2109.0,2226.0,3040516.0,
1739.0,1639.0,2122.0,2237.0,3040519.0,
1738.0,1639.0,2133.0,2241.0,3040523.0,
1739.0,1639.0,2144.0,2248.0,3040527.0,
1739.0,1639.0,2158.0,2255.0,3040530.0,
1737.0,1639.0,2168.0,2263.0,3040534.0,
1740.0,1639.0,2178.0,2270.0,3040538.0,
1739.0,1638.0,2187.0,2279.0,3040541.0,
1739.0,1639.0,2195.0,2284.0,3040545.0,
1739.0,1640.0,2209.0,2292.0,3040549.0,
1738.0,1640.0,2212.0,2300.0,3040552.0,
1739.0,1638.0,2223.0,2307.0,3040556.0,
1743.0,1637.0,2231.0,2313.0,3040559.0,
1739.0,1640.0,2241.0,2319.0,3040563.0,
1740.0,1637.0,2248.0,2325.0,3040567.0,
1739.0,1639.0,2252.0,2331.0,3040570.0,
1744.0,1639.0,2260.0,2333.0,3040574.0,
1739.0,1638.0,2265.0,2336.0,3040578.0,
1739.0,1640.0,2271.0,2338.0,3040581.0,
1738.0,1639.0,2272.0,2344.0,3040585.0,
1740.0,1639.0,2275.0,2350.0,3040589.0,
1738.0,1639.0,2279.0,2353.0,3040592.0,
1739.0,1637.0,2279.0,2356.0,3040596.0,
1739.0,1639.0,2280.0,2358.0,3040599.0,
1739.0,1638.0,2285.0,2359.0,3040603.0,
1738.0,1637.0,2281.0,2358.0,3040607.0,
1739.0,1638.0,2283.0,2360.0,3040610.0,
1739.0,1638.0,2285.0,2359.0,3040614.0,
1740.0,1640.0,2281.0,2356.0,3040618.0,
1740.0,1638.0,2280.0,2355.0,3040621.0,
1739.0,1638.0,2281.0,2349.0,3040625.0,
1739.0,1638.0,2274.0,2346.0,3040628.0,
1742.0,1638.0,2276.0,2342.0,3040632.0,
1738.0,1639.0,2274.0,2337.0,3040636.0,
1740.0,1638.0,2271.0,2332.0,3040639.0,
1738.0,1639.0,2265.0,2324.0,3040643.0,
1738.0,1637.0,2262.0,2319.0,3040647.0,
1739.0,1636.0,2259.0,2310.0,3040650.0,
1738.0,1632.0,2252.0,2301.0,3040654.0,
1739.0,1637.0,2239.0,2293.0,3040658.0,
1732.0,1638.0,2240.0,2282.0,3040661.0,
1739.0,1638.0,2233.0,2273.0,3040665.0,
1742.0,1640.0,2228.0,2264.0,3040668.0,
1740.0,1639.0,2221.0,2251.0,3040672.0,
1738.0,1638.0,2216.0,2243.0,3040676.0,
1740.0,1638.0,2209.0,2235.0,3040679.0,
1739.0,1637.0,2204.0,2225.0,3040683.0,
1739.0,1639.0,2198.0,2220.0,3040687.0,
1739.0,1640.0,2198.0,2209.0,3040690.0,
1739.0,1637.0,2190.0,2204.0,3040694.0,
1739.0,1637.0,2185.0,2195.0,3040698.0,
1739.0,1636.0,2178.0,2184.0,3040701.0,
1740.0,1636.0,2176.0,2179.0,3040705.0,
1739.0,1636.0,2175.0,2173.0,3040708.0,
1740.0,1637.0,2165.0,2166.0,3040712.0,
1739.0,1638.0,2166.0,2164.0,3040716.0,
1739.0,1637.0,2161.0,2156.0,3040719.0,
1739.0,1637.0,2159.0,2150.0,3040723.0,
1740.0,1636.0,2158.0,2149.0,3040727.0,
1741.0,1637.0,2159.0,2145.0,3040730.0,
1739.0,1638.0,2156.0,2142.0,3040734.0,
1739.0,1637.0,2161.0,2143.0,3040738.0,
1740.0,1640.0,2153.0,2138.0,3040741.0,
1739.0,1636.0,2152.0,2135.0,3040745.0,
1738.0,1638.0,2148.0,2134.0,3040748.0,
1739.0,1639.0,2150.0,2130.0,3040752.0,
1740.0,1637.0,2148.0,2126.0,3040756.0,
1738.0,1636.0,2144.0,2122.0,3040759.0,
1739.0,1636.0,2145.0,2124.0,3040763.0,
1738.0,1636.0,2144.0,2118.0,3040767.0,
1740.0,1636.0,2145.0,2118.0,3040770.0,
1740.0,1637.0,2143.0,2118.0,3040774.0,
1740.0,1638.0,2140.0,2118.0,3040777.0,
1733.0,1636.0,2140.0,2116.0,3040781.0,
1738.0,1637.0,2139.0,2115.0,3040785.0,
1739.0,1638.0,2137.0,2113.0,3040788.0,
1737.0,1637.0,2138.0,2111.0,3040792.0,
1739.0,1638.0,2136.0,2109.0,3040796.0,
1738.0,1635.0,2139.0,2106.0,3040799.0,
1738.0,1635.0,2136.0,2105.0,3040803.0,
1739.0,1636.0,2134.0,2101.0,3040807.0,
1739.0,1637.0,2132.0,2098.0,3040810.0,
1740.0,1636.0,2131.0,2095.0,3040814.0,
1741.0,1637.0,2128.0,2089.0,3040817.0,
1739.0,1636.0,2128.0,2087.0,3040821.0,
1738.0,1637.0,2124.0,2080.0,3040825.0,
1738.0,1635.0,2122.0,2075.0,3040828.0,
1738.0,1636.0,2119.0,2070.0,3040832.0,
1739.0,1636.0,2114.0,2068.0,3040836.0,
1739.0,1631.0,2111.0,2068.0,3040839.0,
1739.0,1636.0,2107.0,2066.0,3040843.0,
1739.0,1634.0,2108.0,2064.0,3040847.0,
1738.0,1637.0,2108.0,2064.0,3040850.0,
1739.0,1642.0,2105.0,2064.0,3040854.0,
1739.0,1635.0,2104.0,2063.0,3040857.0,
1739.0,1636.0,2102.0,2056.0,3040861.0,
1739.0,1635.0,2098.0,2055.0,3040865.0,
1739.0,1636.0,2096.0,2054.0,3040868.0,
1738.0,1635.0,2097.0,2048.0,3040872.0,
1738.0,1637.0,2094.0,2043.0,3040876.0,
1738.0,1636.0,2094.0,2038.0,3040879.0,
1740.0,1635.0,2093.0,2035.0,3040883.0,
1738.0,1637.0,2093.0,2027.0,3040887.0,
1737.0,1636.0,2092.0,2021.0,3040890.0,
1737.0,1634.0,2091.0,2022.0,3040894.0,
1739.0,1633.0,2089.0,2018.0,3040897.0,
1739.0,1636.0,2088.0,2015.0,3040901.0,
1738.0,1636.0,2089.0,2009.0,3040905.0,
1736.0,1635.0,2088.0,2004.0,3040908.0,
1739.0,1636.0,2087.0,2002.0,3040912.0,
1739.0,1637.0,2087.0,2000.0,3040916.0,
1738.0,1642.0,2086.0,1997.0,3040919.0,
1737.0,1635.0,2081.0,1992.0,3040923.0,
1738.0,1633.0,2079.0,1988.0,3040926.0,
1739.0,1635.0,2081.0,1986.0,3040930.0,
1738.0,1637.0,2081.0,1985.0,3040934.0,
1738.0,1634.0,2079.0,1984.0,3040937.0,
1742.0,1634.0,2080.0,1977.0,3040941.0,
1739.0,1636.0,2075.0,1975.0,3040945.0,
1738.0,1633.0,2076.0,1972.0,3040948.0,
1740.0,1636.0,2075.0,1967.0,3040952.0,
1739.0,1634.0,2076.0,1969.0,3040956.0,
1739.0,1636.0,2076.0,1969.0,3040959.0,
1734.0,1634.0,2075.0,1970.0,3040963.0,
1739.0,1636.0,2076.0,1968.0,3040966.0,
1739.0,1636.0,2075.0,1968.0,3040970.0,
1736.0,1634.0,2073.0,1968.0,3040974.0,
1740.0,1634.0,2071.0,1972.0,3040977.0,
1739.0,1634.0,2072.0,1976.0,3040981.0,
1740.0,1635.0,2067.0,1976.0,3040985.0,
1740.0,1636.0,2064.0,1978.0,3040988.0,
1738.0,1636.0,2061.0,1980.0,3040992.0,
1739.0,1634.0,2065.0,1983.0,3040996.0,
1739.0,1636.0,2055.0,1983.0,3040999.0,
1738.0,1635.0,2051.0,1984.0,3041003.0,
1740.0,1636.0,2048.0,1984.0,3041006.0,
1739.0,1637.0,2044.0,1985.0,3041010.0,
1739.0,1633.0,2042.0,1983.0,3041014.0,
1737.0,1634.0,2036.0,1986.0,3041017.0,
1738.0,1634.0,2037.0,1980.0,3041021.0,
1739.0,1635.0,2030.0,1976.0,3041025.0,
1738.0,1635.0,2030.0,1970.0,3041028.0,
1739.0,1635.0,2026.0,1972.0,3041032.0,
1739.0,1635.0,2025.0,1963.0,3041036.0,
1738.0,1635.0,2023.0,1961.0,3041039.0,
1740.0,1634.0,2020.0,1954.0,3041043.0,
1738.0,1634.0,2020.0,1954.0,3041046.0,
1738.0,1629.0,2020.0,1955.0,3041050.0,
1738.0,1635.0,2017.0,1957.0,3041054.0,
1738.0,1636.0,2014.0,1955.0,3041057.0,
1733.0,1633.0,2010.0,1959.0,3041061.0,
1736.0,1634.0,2010.0,1959.0,3041065.0,
1738.0,1633.0,2008.0,1962.0,3041068.0,
1738.0,1636.0,2011.0,1961.0,3041072.0,
1738.0,1636.0,2009.0,1964.0,3041076.0,
1738.0,1634.0,2007.0,1966.0,3041079.0,
1738.0,1633.0,2007.0,1966.0,3041083.0,
1738.0,1634.0,2006.0,1971.0,3041086.0,
1739.0,1639.0,2002.0,1968.0,3041090.0,
1739.0,1634.0,2003.0,1967.0,3041094.0,
1738.0,1634.0,1999.0,1967.0,3041097.0,
1734.0,1634.0,1996.0,1969.0,3041101.0,
1738.0,1634.0,1998.0,1965.0,3041105.0,
1739.0,1633.0,1995.0,1967.0,3041108.0,
1738.0,1634.0,1995.0,1969.0,3041112.0,
1739.0,1629.0,1996.0,1970.0,3041115.0,
1735.0,1635.0,1996.0,1971.0,3041119.0,
1738.0,1635.0,1997.0,1974.0,3041123.0,
1737.0,1635.0,1995.0,1978.0,3041126.0,
1737.0,1632.0,1996.0,1981.0,3041130.0,
1737.0,1634.0,1995.0,1982.0,3041134.0,
1738.0,1633.0,1995.0,1981.0,3041137.0,
1738.0,1634.0,1994.0,1980.0,3041141.0,
1740.0,1634.0,1990.0,1980.0,3041145.0,
1738.0,1633.0,1994.0,1981.0,3041148.0,
1739.0,1634.0,1992.0,1976.0,3041152.0,
1738.0,1634.0,1992.0,1975.0,3041155.0,
1739.0,1638.0,1989.0,1973.0,3041159.0,
1739.0,1634.0,1986.0,1969.0,3041163.0,
1738.0,1633.0,1988.0,1967.0,3041166.0,
1738.0,1633.0,1986.0,1963.0,3041170.0,
1738.0,1633.0,1985.0,1963.0,3041174.0,
1738.0,1632.0,1984.0,1959.0,3041177.0,
1738.0,1633.0,1984.0,1958.0,3041181.0,
1738.0,1633.0,1984.0,1958.0,3041185.0,
1739.0,1633.0,1984.0,1957.0,3041188.0,
1739.0,1634.0,1985.0,1956.0,3041192.0,
1732.0,1633.0,1982.0,1955.0,3041195.0,
1739.0,1632.0,1981.0,1959.0,3041199.0,
1739.0,1634.0,1981.0,1952.0,3041203.0,
1739.0,1633.0,1979.0,1951.0,3041206.0,
1740.0,1632.0,1979.0,1948.0,3041210.0,
1736.0,1634.0,1980.0,1946.0,3041214.0,
1739.0,1634.0,1980.0,1940.0,3041217.0,
1738.0,1635.0,1977.0,1939.0,3041221.0,
1739.0,1634.0,1976.0,1938.0,3041225.0,
1738.0,1633.0,1976.0,1937.0,3041228.0,
1735.0,1632.0,1970.0,1934.0,3041232.0,
1739.0,1632.0,1971.0,1930.0,3041235.0,
1737.0,1632.0,1967.0,1932.0,3041239.0,
1739.0,1631.0,1966.0,1929.0,3041243.0,
1739.0,1630.0,1963.0,1931.0,3041246.0,
1739.0,1633.0,1963.0,1934.0,3041250.0,
1740.0,1632.0,1962.0,1933.0,3041254.0,
1739.0,1630.0,1962.0,1932.0,3041257.0,
1740.0,1634.0,1961.0,1934.0,3041261.0,
1736.0,1632.0,1958.0,1936.0,3041264.0,
1739.0,1633.0,1958.0,1938.0,3041268.0,
1738.0,1632.0,1958.0,1939.0,3041272.0,
1739.0,1632.0,1956.0,1943.0,3041275.0,
1739.0,1633.0,1955.0,1946.0,3041279.0,
1738.0,1631.0,1957.0,1949.0,3041283.0,
1739.0,1631.0,1957.0,1955.0,3041286.0,
1738.0,1633.0,1957.0,1963.0,3041290.0,
1738.0,1632.0,1956.0,1971.0,3041294.0,
1739.0,1633.0,1960.0,1978.0,3041297.0,
1739.0,1632.0,1958.0,1986.0,3041301.0,
1738.0,1631.0,1959.0,1995.0,3041304.0,
1738.0,1634.0,1963.0,2005.0,3041308.0,
1738.0,1632.0,1965.0,2016.0,3041312.0,
1738.0,1633.0,1966.0,2027.0,3041315.0,
1739.0,1632.0,1967.0,2036.0,3041319.0,
1738.0,1633.0,1964.0,2045.0,3041323.0,
1738.0,1634.0,1971.0,2054.0,3041326.0,
1739.0,1633.0,1976.0,2065.0,3041330.0,
1740.0,1634.0,1979.0,2075.0,3041334.0,
1738.0,1632.0,1985.0,2084.0,3041337.0,
1739.0,1634.0,1991.0,2094.0,3041341.0,
1740.0,1634.0,1997.0,2103.0,3041344.0,
1740.0,1634.0,2004.0,2117.0,3041348.0,
1739.0,1634.0,2011.0,2126.0,3041352.0,
1739.0,1635.0,2017.0,2134.0,3041355.0,
1739.0,1634.0,2023.0,2142.0,3041359.0,
1738.0,1633.0,2032.0,2155.0,3041363.0,
1739.0,1636.0,2038.0,2162.0,3041366.0,
1739.0,1633.0,2046.0,2169.0,3041370.0,
1738.0,1635.0,2053.0,2175.0,3041373.0,
1738.0,1633.0,2065.0,2194.0,3041377.0,
1735.0,1633.0,2072.0,2205.0,3041381.0,
1739.0,1629.0,2087.0,2216.0,3041384.0,
1740.0,1633.0,2095.0,2229.0,3041388.0,
1738.0,1632.0,2106.0,2241.0,3041392.0,
1739.0,1634.0,2118.0,2250.0,3041395.0,
1739.0,1634.0,2130.0,2261.0,3041399.0,
1738.0,1634.0,2140.0,2273.0,3041403.0,
1739.0,1633.0,2150.0,2284.0,3041406.0,
1737.0,1633.0,2161.0,2292.0,3041410.0,
1739.0,1633.0,2168.0,2300.0,3041413.0,
1739.0,1634.0,2179.0,2308.0,3041417.0,
1739.0,1633.0,2186.0,2314.0,3041421.0,
1740.0,1636.0,2194.0,2321.0,3041424.0,
1739.0,1633.0,2199.0,2328.0,3041428.0,
1740.0,1634.0,2208.0,2333.0,3041432.0,
1738.0,1636.0,2212.0,2337.0,3041435.0,
1739.0,1635.0,2218.0,2343.0,3041439.0,
1740.0,1634.0,2223.0,2346.0,3041443.0,
1738.0,1633.0,2225.0,2352.0,3041446.0,
1738.0,1631.0,2226.0,2357.0,3041450.0,
1737.0,1634.0,2231.0,2357.0,3041453.0,
1739.0,1633.0,2231.0,2363.0,3041457.0,
1739.0,1632.0,2229.0,2365.0,3041461.0,
1733.0,1634.0,2231.0,2365.0,3041464.0,
1739.0,1636.0,2230.0,2365.0,3041468.0,
1739.0,1632.0,2233.0,2363.0,3041472.0,
1738.0,1634.0,2231.0,2362.0,3041475.0,
1739.0,1633.0,2232.0,2358.0,3041479.0,
1739.0,1636.0,2233.0,2354.0,3041483.0,
1739.0,1636.0,2232.0,2350.0,3041486.0,
1740.0,1633.0,2231.0,2343.0,3041490.0,
1738.0,1635.0,2231.0,2336.0,3041493.0,
1740.0,1634.0,2229.0,2330.0,3041497.0,
1739.0,1635.0,2227.0,2319.0,3041501.0,
1738.0,1635.0,2222.0,2311.0,3041504.0,
1745.0,1634.0,2220.0,2304.0,3041508.0,
1738.0,1633.0,2217.0,2296.0,3041512.0,
1739.0,1634.0,2215.0,2290.0,3041515.0,
1739.0,1633.0,2211.0,2283.0,3041519.0,
1739.0,1635.0,2206.0,2280.0,3041522.0,
1738.0,1633.0,2203.0,2272.0,3041526.0,
1740.0,1635.0,2200.0,2264.0,3041530.0,
1740.0,1633.0,2198.0,2257.0,3041533.0,
1738.0,1632.0,2195.0,2250.0,3041537.0,
1740.0,1634.0,2192.0,2243.0,3041541.0,
1740.0,1632.0,2186.0,2239.0,3041544.0,
1739.0,1630.0,2181.0,2231.0,3041548.0,
1738.0,1630.0,2177.0,2226.0,3041552.0,
1739.0,1628.0,2174.0,2221.0,3041555.0,
1739.0,1634.0,2169.0,2213.0,3041559.0,
1740.0,1630.0,2164.0,2206.0,3041562.0,
1739.0,1633.0,2161.0,2200.0,3041566.0,
1740.0,1633.0,2160.0,2192.0,3041570.0,
1740.0,1634.0,2157.0,2181.0,3041573.0,
1739.0,1633.0,2146.0,2173.0,3041577.0,
1738.0,1634.0,2148.0,2163.0,3041581.0,
1738.0,1636.0,2146.0,2155.0,3041584.0,
1740.0,1633.0,2143.0,2148.0,3041588.0,
1738.0,1631.0,2136.0,2143.0,3041592.0,
1739.0,1633.0,2133.0,2145.0,3041595.0,
1739.0,1635.0,2127.0,2133.0,3041599.0,
1740.0,1633.0,2125.0,2128.0,3041602.0,
1739.0,1633.0,2121.0,2125.0,3041606.0,
1740.0,1633.0,2124.0,2118.0,3041610.0,
1746.0,1632.0,2115.0,2114.0,3041613.0,
1739.0,1634.0,2114.0,2107.0,3041617.0,
1739.0,1633.0,2113.0,2102.0,3041621.0,
1739.0,1632.0,2110.0,2097.0,3041624.0,
1736.0,1634.0,2110.0,2090.0,3041628.0,
1740.0,1632.0,2106.0,2084.0,3041632.0,
1740.0,1635.0,2105.0,2080.0,3041635.0,
1740.0,1632.0,2104.0,2081.0,3041639.0,
1739.0,1632.0,2101.0,2075.0,3041642.0,
1740.0,1632.0,2101.0,2075.0,3041646.0,
1739.0,1631.0,2098.0,2064.0,3041650.0,
1739.0,1632.0,2098.0,2065.0,3041653.0,
1739.0,1633.0,2096.0,2066.0,3041657.0,
1738.0,1632.0,2098.0,2059.0,3041661.0,
1739.0,1633.0,2097.0,2059.0,3041664.0,
1739.0,1632.0,2098.0,2056.0,3041668.0,
1739.0,1633.0,2097.0,2053.0,3041671.0,
1739.0,1633.0,2098.0,2046.0,3041675.0,
1734.0,1631.0,2098.0,2050.0,3041679.0,
1737.0,1632.0,2095.0,2050.0,3041682.0,
1739.0,1630.0,2094.0,2052.0,3041686.0,
1740.0,1632.0,2092.0,2050.0,3041690.0,
1740.0,1632.0,2090.0,2053.0,3041693.0,
1738.0,1633.0,2092.0,2054.0,3041697.0,
1738.0,1633.0,2087.0,2055.0,3041701.0,
1740.0,1633.0,2086.0,2059.0,3041704.0,
1739.0,1632.0,2088.0,2061.0,3041708.0,
1739.0,1632.0,2088.0,2061.0,3041711.0,
1739.0,1632.0,2087.0,2062.0,3041715.0,
1739.0,1634.0,2086.0,2060.0,3041719.0,
1741.0,1632.0,2084.0,2059.0,3041722.0,
1741.0,1632.0,2083.0,2060.0,3041726.0,
1740.0,1631.0,2082.0,2054.0,3041730.0,
1738.0,1628.0,2081.0,2055.0,3041733.0,
1739.0,1632.0,2079.0,2053.0,3041737.0,
1738.0,1631.0,2077.0,2051.0,3041741.0,
1733.0,1631.0,2074.0,2051.0,3041744.0,
1739.0,1632.0,2072.0,2048.0,3041748.0,
1740.0,1632.0,2068.0,2047.0,3041751.0,
1739.0,1630.0,2067.0,2048.0,3041755.0,
1740.0,1633.0,2064.0,2044.0,3041759.0,
1739.0,1631.0,2063.0,2041.0,3041762.0,
1740.0,1632.0,2059.0,2039.0,3041766.0,
1740.0,1631.0,2057.0,2036.0,3041770.0,
1738.0,1632.0,2052.0,2030.0,3041773.0,
1739.0,1633.0,2049.0,2026.0,3041777.0,
1739.0,1631.0,2047.0,2019.0,3041781.0,
1738.0,1631.0,2043.0,2016.0,3041784.0,
1739.0,1633.0,2042.0,2010.0,3041788.0,
1740.0,1632.0,2040.0,2009.0,3041791.0,
1739.0,1629.0,2036.0,2010.0,3041795.0,
1738.0,1631.0,2035.0,2004.0,3041799.0,
1739.0,1633.0,2031.0,2004.0,3041802.0,
1740.0,1631.0,2031.0,2001.0,3041806.0,
1737.0,1631.0,2029.0,1998.0,3041810.0,
1739.0,1632.0,2030.0,1997.0,3041813.0,
1741.0,1631.0,2028.0,1994.0,3041817.0,
1738.0,1633.0,2028.0,1992.0,3041820.0,
1736.0,1631.0,2026.0,1993.0,3041824.0,
1739.0,1632.0,2026.0,1990.0,3041828.0,
1736.0,1631.0,2026.0,1986.0,3041831.0,
1739.0,1632.0,2024.0,1984.0,3041835.0,
1739.0,1632.0,2025.0,1982.0,3041839.0,
1739.0,1632.0,2026.0,1980.0,3041842.0,
1736.0,1631.0,2023.0,1980.0,3041846.0,
1739.0,1629.0,2024.0,1974.0,3041850.0,
1739.0,1629.0,2025.0,1975.0,3041853.0,
1738.0,1631.0,2023.0,1974.0,3041857.0,
1741.0,1632.0,2021.0,1971.0,3041860.0,
1739.0,1631.0,2021.0,1971.0,3041864.0,
1738.0,1631.0,2021.0,1970.0,3041868.0,
1740.0,1631.0,2018.0,1965.0,3041871.0,
1739.0,1631.0,2020.0,1963.0,3041875.0,
1738.0,1631.0,2018.0,1962.0,3041879.0,
1739.0,1630.0,2018.0,1960.0,3041882.0,
1739.0,1631.0,2015.0,1959.0,3041886.0,
1739.0,1631.0,2011.0,1956.0,3041890.0,
1739.0,1632.0,2009.0,1956.0,3041893.0,
1738.0,1633.0,2006.0,1955.0,3041897.0,
1740.0,1632.0,2004.0,1954.0,3041900.0,
1739.0,1631.0,2004.0,1949.0,3041904.0,
1739.0,1631.0,2004.0,1950.0,3041908.0,
1739.0,1631.0,2003.0,1944.0,3041911.0,
1738.0,1631.0,1999.0,1943.0,3041915.0,
1739.0,1631.0,1998.0,1943.0,3041919.0,
1737.0,1632.0,1995.0,1943.0,3041922.0,
1739.0,1632.0,1993.0,1945.0,3041926.0,
1740.0,1631.0,1990.0,1943.0,3041930.0,
1738.0,1632.0,1986.0,1944.0,3041933.0,
1737.0,1630.0,1987.0,1944.0,3041937.0,
1739.0,1632.0,1983.0,1942.0,3041940.0,
1738.0,1628.0,1983.0,1946.0,3041944.0,
1739.0,1628.0,1979.0,1940.0,3041948.0,
1738.0,1632.0,1980.0,1947.0,3041951.0,
1734.0,1630.0,1975.0,1948.0,3041955.0,
1739.0,1630.0,1976.0,1949.0,3041959.0,
1738.0,1632.0,1973.0,1948.0,3041962.0,
1739.0,1628.0,1969.0,1950.0,3041966.0,
1738.0,1626.0,1970.0,1950.0,3041969.0,
1741.0,1630.0,1972.0,1950.0,3041973.0,
1739.0,1632.0,1969.0,1952.0,3041977.0,
1739.0,1631.0,1969.0,1952.0,3041980.0,
1739.0,1629.0,1970.0,1952.0,3041984.0,
1742.0,1629.0,1970.0,1954.0,3041988.0,
1738.0,1631.0,1968.0,1953.0,3041991.0,
1739.0,1630.0,1968.0,1955.0,3041995.0,
1740.0,1629.0,1963.0,1955.0,3041999.0,
1739.0,1634.0,1969.0,1958.0,3042002.0,
1740.0,1628.0,1965.0,1958.0,3042006.0,
1739.0,1630.0,1967.0,1960.0,3042009.0,
1738.0,1631.0,1966.0,1964.0,3042013.0,
1739.0,1630.0,1967.0,1965.0,3042017.0,
1739.0,1629.0,1964.0,1966.0,3042020.0,
1739.0,1630.0,1962.0,1966.0,3042024.0,
1738.0,1631.0,1960.0,1967.0,3042028.0,
1740.0,1629.0,1961.0,1967.0,3042031.0,
1740.0,1633.0,1961.0,1969.0,3042035.0,
1740.0,1630.0,1961.0,1968.0,3042039.0,
1739.0,1630.0,1960.0,1971.0,3042042.0,
1740.0,1630.0,1961.0,1969.0,3042046.0,
1739.0,1626.0,1964.0,1968.0,3042049.0,
1739.0,1628.0,1961.0,1966.0,3042053.0,
1738.0,1630.0,1962.0,1964.0,3042057.0,
1739.0,1631.0,1963.0,1961.0,3042060.0,
1740.0,1630.0,1963.0,1956.0,3042064.0,
1740.0,1631.0,1962.0,1953.0,3042068.0,
1740.0,1630.0,1962.0,1949.0,3042071.0,
1741.0,1630.0,1959.0,1945.0,3042075.0,
1740.0,1632.0,1960.0,1942.0,3042079.0,
1739.0,1629.0,1959.0,1941.0,3042082.0,
1739.0,1630.0,1960.0,1940.0,3042086.0,
1739.0,1629.0,1959.0,1937.0,3042089.0,
1739.0,1631.0,1958.0,1933.0,3042093.0,
1739.0,1630.0,1958.0,1930.0,3042097.0,
1738.0,1636.0,1956.0,1925.0,3042100.0,
1739.0,1631.0,1957.0,1919.0,3042104.0,
1740.0,1631.0,1953.0,1918.0,3042108.0,
1738.0,1627.0,1955.0,1916.0,3042111.0,
1738.0,1629.0,1954.0,1918.0,3042115.0,
1739.0,1632.0,1953.0,1913.0,3042118.0,
1739.0,1632.0,1955.0,1910.0,3042122.0,
1740.0,1630.0,1952.0,1911.0,3042126.0,
1739.0,1628.0,1956.0,1909.0,3042129.0,
1738.0,1630.0,1959.0,1907.0,3042133.0,
1740.0,1629.0,1952.0,1907.0,3042137.0,
1739.0,1630.0,1954.0,1909.0,3042140.0,
1739.0,1629.0,1956.0,1908.0,3042144.0,
1738.0,1632.0,1956.0,1912.0,3042148.0,
1740.0,1630.0,1955.0,1913.0,3042151.0,
1740.0,1630.0,1954.0,1915.0,3042155.0,
1738.0,1627.0,1958.0,1919.0,3042158.0,
1739.0,1629.0,1957.0,1928.0,3042162.0,
1739.0,1630.0,1957.0,1937.0,3042166.0,
1739.0,1633.0,1956.0,1942.0,3042169.0,
1739.0,1632.0,1959.0,1954.0,3042173.0,
1738.0,1630.0,1955.0,1963.0,3042177.0,
1741.0,1630.0,1957.0,1974.0,3042180.0,
1739.0,1628.0,1957.0,1984.0,3042184.0,
1741.0,1630.0,1958.0,1998.0,3042188.0,
1739.0,1631.0,1961.0,2009.0,3042191.0,
1739.0,1629.0,1960.0,2021.0,3042195.0,
1739.0,1630.0,1961.0,2034.0,3042198.0,
1735.0,1630.0,1964.0,2047.0,3042202.0,
1740.0,1629.0,1966.0,2056.0,3042206.0,
1739.0,1629.0,1969.0,2065.0,3042209.0,
1739.0,1631.0,1970.0,2077.0,3042213.0,
1739.0,1629.0,1973.0,2091.0,3042217.0,
1741.0,1630.0,1975.0,2099.0,3042220.0,
1738.0,1630.0,1974.0,2118.0,3042224.0,
1739.0,1629.0,1985.0,2125.0,3042227.0,
1737.0,1630.0,1990.0,2134.0,3042231.0,
1739.0,1630.0,1996.0,2145.0,3042235.0,
1739.0,1631.0,2001.0,2153.0,3042238.0,
1739.0,1628.0,2012.0,2157.0,3042242.0,
1735.0,1630.0,2022.0,2173.0,3042246.0,
1739.0,1629.0,2029.0,2187.0,3042249.0,
1739.0,1630.0,2040.0,2191.0,3042253.0,
1736.0,1629.0,2046.0,2201.0,3042257.0,
1739.0,1630.0,2055.0,2206.0,3042260.0,
1739.0,1630.0,2062.0,2217.0,3042264.0,
1738.0,1630.0,2068.0,2224.0,3042267.0,
1741.0,1630.0,2078.0,2232.0,3042271.0,
1738.0,1629.0,2087.0,2242.0,3042275.0,
1736.0,1629.0,2094.0,2250.0,3042278.0,
1740.0,1629.0,2102.0,2257.0,3042282.0,
1739.0,1629.0,2108.0,2264.0,3042286.0,
1738.0,1628.0,2117.0,2270.0,3042289.0,
1739.0,1629.0,2122.0,2276.0,3042293.0,
1740.0,1631.0,2128.0,2279.0,3042297.0,
1739.0,1630.0,2136.0,2285.0,3042300.0,
1739.0,1630.0,2143.0,2289.0,3042304.0,
1739.0,1631.0,2151.0,2295.0,3042307.0,
1739.0,1631.0,2154.0,2300.0,3042311.0,
1740.0,1628.0,2160.0,2303.0,3042315.0,
1738.0,1635.0,2165.0,2308.0,3042318.0,
1736.0,1630.0,2169.0,2313.0,3042322.0,
1739.0,1630.0,2175.0,2315.0,3042326.0,
1740.0,1632.0,2175.0,2316.0,3042329.0,
1739.0,1629.0,2177.0,2319.0,3042333.0,
1740.0,1631.0,2179.0,2318.0,3042337.0,
1739.0,1630.0,2181.0,2318.0,3042340.0,
1739.0,1630.0,2181.0,2316.0,3042344.0,
1740.0,1630.0,2182.0,2315.0,3042347.0,
1739.0,1630.0,2183.0,2314.0,3042351.0,
1738.0,1630.0,2183.0,2314.0,3042355.0,
1739.0,1629.0,2184.0,2312.0,3042358.0,
1739.0,1629.0,2186.0,2310.0,3042362.0,
1741.0,1628.0,2184.0,2315.0,3042366.0,
1741.0,1630.0,2189.0,2310.0,3042369.0,
1739.0,1630.0,2187.0,2308.0,3042373.0,
1739.0,1628.0,2186.0,2300.0,3042376.0,
1735.0,1629.0,2185.0,2298.0,3042380.0,
1739.0,1630.0,2182.0,2295.0,3042384.0,
1739.0,1631.0,2181.0,2283.0,3042387.0,
1739.0,1630.0,2176.0,2277.0,3042391.0,
1741.0,1629.0,2175.0,2270.0,3042395.0,
1740.0,1629.0,2170.0,2265.0,3042398.0,
1740.0,1629.0,2167.0,2260.0,3042402.0,
1740.0,1628.0,2165.0,2254.0,3042406.0,
1740.0,1630.0,2161.0,2249.0,3042409.0,
1740.0,1629.0,2157.0,2239.0,3042413.0,
1740.0,1630.0,2152.0,2233.0,3042416.0,
1739.0,1630.0,2149.0,2224.0,3042420.0,
1744.0,1629.0,2144.0,2219.0,3042424.0,
