EDA,Resp,PPG Finger,PPG Ear,arduino_ts,event_code
1989.0,1580.0,1866.0,1772.0,12206337.0,
1992.0,1580.0,1865.0,1771.0,12206341.0,
1991.0,1582.0,1866.0,1767.0,12206344.0,
1992.0,1581.0,1865.0,1765.0,12206348.0,
1991.0,1581.0,1863.0,1765.0,12206352.0,
1991.0,1580.0,1860.0,1763.0,12206355.0,
1992.0,1582.0,1861.0,1761.0,12206359.0,
1991.0,1583.0,1856.0,1757.0,12206363.0,
1992.0,1581.0,1854.0,1756.0,12206366.0,
1992.0,1580.0,1850.0,1752.0,12206370.0,
1992.0,1582.0,1846.0,1750.0,12206374.0,
1992.0,1582.0,1846.0,1739.0,12206377.0,
1991.0,1582.0,1845.0,1741.0,12206381.0,
1992.0,1583.0,1843.0,1739.0,12206384.0,
1991.0,1580.0,1843.0,1738.0,12206388.0,
1991.0,1580.0,1841.0,1741.0,12206392.0,
1993.0,1581.0,1838.0,1733.0,12206395.0,
1991.0,1583.0,1834.0,1735.0,12206399.0,
1990.0,1582.0,1831.0,1728.0,12206403.0,
1992.0,1583.0,1827.0,1730.0,12206406.0,
1992.0,1582.0,1822.0,1729.0,12206410.0,
1992.0,1582.0,1816.0,1732.0,12206414.0,
1991.0,1581.0,1814.0,1728.0,12206417.0,
1992.0,1581.0,1810.0,1728.0,12206421.0,
1997.0,1582.0,1804.0,1724.0,12206424.0,
1993.0,1579.0,1801.0,1723.0,12206428.0,
1992.0,1582.0,1799.0,1721.0,12206432.0,
1992.0,1581.0,1796.0,1719.0,12206435.0,
1992.0,1580.0,1797.0,1719.0,12206439.0,
1992.0,1582.0,1795.0,1718.0,12206443.0,
1993.0,1581.0,1792.0,1715.0,12206446.0,
1993.0,1581.0,1794.0,1712.0,12206450.0,
1993.0,1583.0,1796.0,1712.0,12206454.0,
1992.0,1580.0,1801.0,1707.0,12206457.0,
1992.0,1582.0,1798.0,1708.0,12206461.0,
1992.0,1581.0,1800.0,1707.0,12206464.0,
1993.0,1581.0,1807.0,1708.0,12206468.0,
1993.0,1582.0,1801.0,1706.0,12206472.0,
1994.0,1580.0,1801.0,1706.0,12206475.0,
1993.0,1580.0,1801.0,1703.0,12206479.0,
1995.0,1582.0,1802.0,1704.0,12206483.0,
1994.0,1583.0,1805.0,1701.0,12206486.0,
1993.0,1581.0,1805.0,1702.0,12206490.0,
1994.0,1581.0,1806.0,1705.0,12206493.0,
1993.0,1581.0,1808.0,1703.0,12206497.0,
1993.0,1581.0,1810.0,1710.0,12206501.0,
1993.0,1581.0,1810.0,1699.0,12206504.0,
1994.0,1581.0,1810.0,1696.0,12206508.0,
1993.0,1581.0,1814.0,1696.0,12206512.0,
1994.0,1580.0,1818.0,1693.0,12206515.0,
1993.0,1581.0,1818.0,1692.0,12206519.0,
1993.0,1582.0,1822.0,1693.0,12206523.0,
1994.0,1580.0,1823.0,1693.0,12206526.0,
1994.0,1582.0,1825.0,1689.0,12206530.0,
1993.0,1580.0,1826.0,1689.0,12206533.0,
1993.0,1582.0,1829.0,1685.0,12206537.0,
1992.0,1581.0,1831.0,1686.0,12206541.0,
1993.0,1582.0,1833.0,1684.0,12206544.0,
1992.0,1582.0,1835.0,1687.0,12206548.0,
1994.0,1583.0,1837.0,1681.0,12206552.0,
1994.0,1582.0,1843.0,1679.0,12206555.0,
1992.0,1582.0,1845.0,1683.0,12206559.0,
1992.0,1582.0,1847.0,1684.0,12206563.0,
1993.0,1584.0,1852.0,1686.0,12206566.0,
1993.0,1583.0,1856.0,1693.0,12206570.0,
1992.0,1583.0,1860.0,1699.0,12206573.0,
1992.0,1583.0,1864.0,1707.0,12206577.0,
1992.0,1581.0,1867.0,1722.0,12206581.0,
1992.0,1584.0,1872.0,1731.0,12206584.0,
1993.0,1582.0,1872.0,1746.0,12206588.0,
1993.0,1582.0,1876.0,1759.0,12206592.0,
1993.0,1582.0,1882.0,1781.0,12206595.0,
1992.0,1583.0,1888.0,1804.0,12206599.0,
1992.0,1581.0,1894.0,1829.0,12206603.0,
1992.0,1582.0,1907.0,1855.0,12206606.0,
1997.0,1583.0,1916.0,1887.0,12206610.0,
1992.0,1583.0,1932.0,1914.0,12206613.0,
1992.0,1583.0,1949.0,1952.0,12206617.0,
1995.0,1583.0,1969.0,1992.0,12206621.0,
1991.0,1583.0,1990.0,2032.0,12206624.0,
1992.0,1582.0,2016.0,2079.0,12206628.0,
1992.0,1583.0,2041.0,2120.0,12206632.0,
1992.0,1583.0,2076.0,2162.0,12206635.0,
1992.0,1584.0,2106.0,2208.0,12206639.0,
1995.0,1584.0,2146.0,2248.0,12206643.0,
1992.0,1586.0,2189.0,2296.0,12206646.0,
1992.0,1583.0,2234.0,2338.0,12206650.0,
1992.0,1584.0,2281.0,2384.0,12206653.0,
1989.0,1583.0,2330.0,2428.0,12206657.0,
1992.0,1583.0,2381.0,2471.0,12206661.0,
1992.0,1583.0,2434.0,2514.0,12206664.0,
1992.0,1582.0,2486.0,2553.0,12206668.0,
1992.0,1583.0,2539.0,2596.0,12206672.0,
1992.0,1583.0,2589.0,2631.0,12206675.0,
1991.0,1582.0,2639.0,2666.0,12206679.0,
1993.0,1587.0,2688.0,2698.0,12206683.0,
1992.0,1584.0,2734.0,2730.0,12206686.0,
1992.0,1585.0,2780.0,2761.0,12206690.0,
1991.0,1583.0,2820.0,2789.0,12206693.0,
1991.0,1583.0,2859.0,2812.0,12206697.0,
1992.0,1583.0,2889.0,2836.0,12206701.0,
1991.0,1583.0,2921.0,2856.0,12206704.0,
1992.0,1583.0,2945.0,2876.0,12206708.0,
1993.0,1583.0,2969.0,2892.0,12206712.0,
1992.0,1582.0,2987.0,2903.0,12206715.0,
1993.0,1584.0,3001.0,2909.0,12206719.0,
1998.0,1583.0,3012.0,2917.0,12206722.0,
1992.0,1583.0,3016.0,2923.0,12206726.0,
1992.0,1582.0,3017.0,2925.0,12206730.0,
1992.0,1584.0,3011.0,2928.0,12206733.0,
1992.0,1584.0,3004.0,2928.0,12206737.0,
1993.0,1582.0,3001.0,2926.0,12206741.0,
1993.0,1583.0,2977.0,2922.0,12206744.0,
1992.0,1581.0,2960.0,2919.0,12206748.0,
1991.0,1584.0,2942.0,2915.0,12206752.0,
1992.0,1582.0,2918.0,2907.0,12206755.0,
1993.0,1581.0,2895.0,2901.0,12206759.0,
1992.0,1581.0,2868.0,2895.0,12206762.0,
1992.0,1583.0,2840.0,2889.0,12206766.0,
1995.0,1581.0,2813.0,2880.0,12206770.0,
1992.0,1581.0,2785.0,2870.0,12206773.0,
1992.0,1581.0,2757.0,2863.0,12206777.0,
1990.0,1581.0,2726.0,2851.0,12206781.0,
1992.0,1581.0,2695.0,2842.0,12206784.0,
1993.0,1583.0,2668.0,2831.0,12206788.0,
1992.0,1582.0,2641.0,2823.0,12206792.0,
1992.0,1580.0,2613.0,2812.0,12206795.0,
1992.0,1580.0,2586.0,2797.0,12206799.0,
1992.0,1581.0,2555.0,2785.0,12206802.0,
1993.0,1582.0,2532.0,2773.0,12206806.0,
1992.0,1582.0,2508.0,2758.0,12206810.0,
1993.0,1581.0,2481.0,2745.0,12206813.0,
1992.0,1580.0,2458.0,2728.0,12206817.0,
1992.0,1581.0,2435.0,2714.0,12206821.0,
1988.0,1582.0,2412.0,2697.0,12206824.0,
1993.0,1581.0,2385.0,2677.0,12206828.0,
1993.0,1583.0,2369.0,2662.0,12206832.0,
1993.0,1581.0,2351.0,2644.0,12206835.0,
1993.0,1581.0,2330.0,2625.0,12206839.0,
1993.0,1582.0,2313.0,2608.0,12206842.0,
1993.0,1581.0,2296.0,2586.0,12206846.0,
1994.0,1580.0,2278.0,2569.0,12206850.0,
1993.0,1581.0,2259.0,2549.0,12206853.0,
1993.0,1581.0,2242.0,2533.0,12206857.0,
1994.0,1579.0,2225.0,2514.0,12206861.0,
1993.0,1580.0,2208.0,2499.0,12206864.0,
1993.0,1582.0,2192.0,2476.0,12206868.0,
1993.0,1581.0,2177.0,2459.0,12206872.0,
1993.0,1580.0,2162.0,2439.0,12206875.0,
1994.0,1580.0,2151.0,2416.0,12206879.0,
1993.0,1581.0,2132.0,2397.0,12206882.0,
1993.0,1579.0,2117.0,2378.0,12206886.0,
1994.0,1580.0,2102.0,2363.0,12206890.0,
1992.0,1581.0,2088.0,2345.0,12206893.0,
1993.0,1580.0,2075.0,2330.0,12206897.0,
1993.0,1581.0,2059.0,2312.0,12206901.0,
1993.0,1581.0,2049.0,2296.0,12206904.0,
1994.0,1580.0,2039.0,2282.0,12206908.0,
1993.0,1582.0,2024.0,2278.0,12206911.0,
1993.0,1580.0,2017.0,2269.0,12206915.0,
1990.0,1579.0,2007.0,2258.0,12206919.0,
1992.0,1581.0,1999.0,2252.0,12206922.0,
1993.0,1581.0,1991.0,2245.0,12206926.0,
1993.0,1581.0,1985.0,2241.0,12206930.0,
1994.0,1578.0,1980.0,2233.0,12206933.0,
1993.0,1580.0,1974.0,2226.0,12206937.0,
1994.0,1580.0,1972.0,2224.0,12206941.0,
1993.0,1578.0,1967.0,2214.0,12206944.0,
1993.0,1580.0,1965.0,2208.0,12206948.0,
1993.0,1580.0,1966.0,2205.0,12206951.0,
1993.0,1581.0,1963.0,2195.0,12206955.0,
1994.0,1579.0,1965.0,2193.0,12206959.0,
1994.0,1580.0,1969.0,2188.0,12206962.0,
1998.0,1579.0,1971.0,2183.0,12206966.0,
1993.0,1581.0,1973.0,2178.0,12206970.0,
1994.0,1583.0,1975.0,2176.0,12206973.0,
1993.0,1579.0,1977.0,2172.0,12206977.0,
1994.0,1580.0,1980.0,2172.0,12206981.0,
1994.0,1580.0,1984.0,2165.0,12206984.0,
1993.0,1578.0,1985.0,2162.0,12206988.0,
1993.0,1580.0,1992.0,2156.0,12206991.0,
1995.0,1580.0,1994.0,2148.0,12206995.0,
1994.0,1580.0,1996.0,2141.0,12206999.0,
1993.0,1584.0,1997.0,2130.0,12207002.0,
1994.0,1575.0,1997.0,2119.0,12207006.0,
1994.0,1579.0,1997.0,2109.0,12207010.0,
1994.0,1578.0,1996.0,2101.0,12207013.0,
1994.0,1579.0,1995.0,2089.0,12207017.0,
1993.0,1579.0,1994.0,2082.0,12207021.0,
1994.0,1579.0,1993.0,2072.0,12207024.0,
1994.0,1579.0,1990.0,2067.0,12207028.0,
1994.0,1578.0,1986.0,2058.0,12207031.0,
1994.0,1579.0,1975.0,2052.0,12207035.0,
1994.0,1577.0,1975.0,2048.0,12207039.0,
1995.0,1578.0,1969.0,2043.0,12207042.0,
1994.0,1580.0,1954.0,2035.0,12207046.0,
1994.0,1579.0,1953.0,2033.0,12207050.0,
1994.0,1579.0,1943.0,2027.0,12207053.0,
1993.0,1576.0,1937.0,2021.0,12207057.0,
1994.0,1580.0,1932.0,2012.0,12207061.0,
1994.0,1579.0,1922.0,2010.0,12207064.0,
1994.0,1579.0,1914.0,2004.0,12207068.0,
1994.0,1579.0,1905.0,1999.0,12207071.0,
1994.0,1579.0,1894.0,1991.0,12207075.0,
1994.0,1580.0,1887.0,1985.0,12207079.0,
1994.0,1579.0,1878.0,1981.0,12207082.0,
1993.0,1580.0,1868.0,1976.0,12207086.0,
1994.0,1579.0,1857.0,1969.0,12207090.0,
1993.0,1579.0,1849.0,1964.0,12207093.0,
1994.0,1577.0,1841.0,1959.0,12207097.0,
1993.0,1580.0,1836.0,1951.0,12207101.0,
1993.0,1579.0,1829.0,1943.0,12207104.0,
1994.0,1578.0,1823.0,1935.0,12207108.0,
1988.0,1579.0,1813.0,1929.0,12207111.0,
1993.0,1579.0,1812.0,1919.0,12207115.0,
1994.0,1578.0,1804.0,1912.0,12207119.0,
1993.0,1578.0,1802.0,1905.0,12207122.0,
1993.0,1580.0,1794.0,1897.0,12207126.0,
1994.0,1578.0,1791.0,1893.0,12207130.0,
1994.0,1578.0,1791.0,1887.0,12207133.0,
1993.0,1578.0,1784.0,1882.0,12207137.0,
1994.0,1579.0,1780.0,1875.0,12207140.0,
1994.0,1578.0,1776.0,1867.0,12207144.0,
1992.0,1578.0,1774.0,1862.0,12207148.0,
1993.0,1577.0,1772.0,1858.0,12207151.0,
1993.0,1579.0,1773.0,1853.0,12207155.0,
1993.0,1578.0,1771.0,1847.0,12207159.0,
1993.0,1577.0,1771.0,1840.0,12207162.0,
1993.0,1578.0,1768.0,1837.0,12207166.0,
1993.0,1580.0,1767.0,1830.0,12207170.0,
1994.0,1577.0,1772.0,1827.0,12207173.0,
1994.0,1581.0,1771.0,1822.0,12207177.0,
1994.0,1578.0,1771.0,1820.0,12207180.0,
1994.0,1579.0,1770.0,1816.0,12207184.0,
1993.0,1579.0,1771.0,1815.0,12207188.0,
1994.0,1579.0,1772.0,1810.0,12207191.0,
1994.0,1577.0,1771.0,1809.0,12207195.0,
1992.0,1578.0,1772.0,1808.0,12207199.0,
1994.0,1577.0,1777.0,1807.0,12207202.0,
1994.0,1577.0,1777.0,1802.0,12207206.0,
1994.0,1577.0,1777.0,1802.0,12207210.0,
1994.0,1578.0,1778.0,1797.0,12207213.0,
1994.0,1577.0,1780.0,1793.0,12207217.0,
1994.0,1578.0,1783.0,1794.0,12207220.0,
1996.0,1578.0,1783.0,1788.0,12207224.0,
1987.0,1576.0,1783.0,1786.0,12207228.0,
1993.0,1577.0,1785.0,1781.0,12207231.0,
1994.0,1577.0,1785.0,1777.0,12207235.0,
1988.0,1577.0,1787.0,1771.0,12207239.0,
1993.0,1577.0,1787.0,1771.0,12207242.0,
1993.0,1578.0,1788.0,1765.0,12207246.0,
1994.0,1578.0,1788.0,1766.0,12207250.0,
1993.0,1578.0,1790.0,1762.0,12207253.0,
1993.0,1576.0,1789.0,1760.0,12207257.0,
1993.0,1579.0,1789.0,1760.0,12207260.0,
1993.0,1578.0,1789.0,1759.0,12207264.0,
1993.0,1576.0,1790.0,1760.0,12207268.0,
1994.0,1577.0,1790.0,1760.0,12207271.0,
1993.0,1577.0,1792.0,1759.0,12207275.0,
1993.0,1580.0,1790.0,1758.0,12207279.0,
1995.0,1575.0,1791.0,1755.0,12207282.0,
1993.0,1575.0,1791.0,1755.0,12207286.0,
1993.0,1576.0,1790.0,1750.0,12207290.0,
1993.0,1577.0,1792.0,1749.0,12207293.0,
1994.0,1577.0,1798.0,1748.0,12207297.0,
1994.0,1577.0,1793.0,1748.0,12207300.0,
1993.0,1578.0,1797.0,1750.0,12207304.0,
1993.0,1577.0,1794.0,1750.0,12207308.0,
1994.0,1577.0,1795.0,1743.0,12207311.0,
1993.0,1577.0,1796.0,1738.0,12207315.0,
1993.0,1577.0,1793.0,1735.0,12207319.0,
1994.0,1576.0,1795.0,1732.0,12207322.0,
1993.0,1577.0,1793.0,1728.0,12207326.0,
1993.0,1577.0,1793.0,1723.0,12207329.0,
1993.0,1576.0,1792.0,1722.0,12207333.0,
1993.0,1575.0,1793.0,1717.0,12207337.0,
1993.0,1581.0,1791.0,1714.0,12207340.0,
1993.0,1576.0,1790.0,1713.0,12207344.0,
1993.0,1577.0,1790.0,1708.0,12207348.0,
1993.0,1575.0,1788.0,1708.0,12207351.0,
1994.0,1572.0,1789.0,1703.0,12207355.0,
1994.0,1575.0,1789.0,1705.0,12207359.0,
1993.0,1577.0,1787.0,1700.0,12207362.0,
1994.0,1578.0,1787.0,1697.0,12207366.0,
1994.0,1575.0,1786.0,1695.0,12207369.0,
1995.0,1577.0,1785.0,1694.0,12207373.0,
1993.0,1576.0,1784.0,1692.0,12207377.0,
1994.0,1575.0,1784.0,1693.0,12207380.0,
1993.0,1576.0,1785.0,1694.0,12207384.0,
1994.0,1577.0,1789.0,1690.0,12207388.0,
1994.0,1577.0,1785.0,1690.0,12207391.0,
1994.0,1577.0,1785.0,1690.0,12207395.0,
1996.0,1577.0,1787.0,1685.0,12207399.0,
1994.0,1576.0,1786.0,1684.0,12207402.0,
1994.0,1577.0,1784.0,1684.0,12207406.0,
1993.0,1578.0,1785.0,1684.0,12207409.0,
1993.0,1576.0,1786.0,1681.0,12207413.0,
1993.0,1577.0,1784.0,1682.0,12207417.0,
1994.0,1578.0,1784.0,1681.0,12207420.0,
1994.0,1579.0,1784.0,1683.0,12207424.0,
1994.0,1578.0,1780.0,1682.0,12207428.0,
1994.0,1582.0,1781.0,1684.0,12207431.0,
1993.0,1578.0,1779.0,1680.0,12207435.0,
1993.0,1576.0,1779.0,1680.0,12207439.0,
1993.0,1577.0,1780.0,1677.0,12207442.0,
1994.0,1579.0,1779.0,1677.0,12207446.0,
1994.0,1575.0,1775.0,1671.0,12207449.0,
1999.0,1575.0,1776.0,1670.0,12207453.0,
1994.0,1578.0,1775.0,1667.0,12207457.0,
1994.0,1577.0,1776.0,1671.0,12207460.0,
1993.0,1578.0,1776.0,1668.0,12207464.0,
2002.0,1577.0,1774.0,1671.0,12207468.0,
1993.0,1580.0,1772.0,1672.0,12207471.0,
1993.0,1577.0,1771.0,1677.0,12207475.0,
1993.0,1578.0,1775.0,1681.0,12207479.0,
1993.0,1577.0,1772.0,1688.0,12207482.0,
1994.0,1577.0,1773.0,1693.0,12207486.0,
1995.0,1577.0,1772.0,1703.0,12207489.0,
1993.0,1578.0,1774.0,1713.0,12207493.0,
1994.0,1576.0,1776.0,1722.0,12207497.0,
1994.0,1578.0,1778.0,1735.0,12207500.0,
1994.0,1576.0,1781.0,1752.0,12207504.0,
1994.0,1578.0,1784.0,1770.0,12207508.0,
1994.0,1576.0,1790.0,1791.0,12207511.0,
1994.0,1578.0,1801.0,1813.0,12207515.0,
1995.0,1577.0,1809.0,1839.0,12207519.0,
1994.0,1577.0,1821.0,1870.0,12207522.0,
1994.0,1574.0,1834.0,1899.0,12207526.0,
1994.0,1577.0,1850.0,1933.0,12207529.0,
1993.0,1577.0,1872.0,1971.0,12207533.0,
1991.0,1579.0,1893.0,2012.0,12207537.0,
1994.0,1577.0,1918.0,2049.0,12207540.0,
1995.0,1576.0,1947.0,2091.0,12207544.0,
1994.0,1577.0,1981.0,2135.0,12207548.0,
1994.0,1577.0,2017.0,2181.0,12207551.0,
1994.0,1578.0,2057.0,2225.0,12207555.0,
1994.0,1577.0,2097.0,2270.0,12207558.0,
1994.0,1577.0,2144.0,2316.0,12207562.0,
1994.0,1578.0,2189.0,2360.0,12207566.0,
1995.0,1578.0,2241.0,2404.0,12207569.0,
1994.0,1577.0,2288.0,2452.0,12207573.0,
1994.0,1577.0,2340.0,2492.0,12207577.0,
1994.0,1577.0,2395.0,2536.0,12207580.0,
1995.0,1577.0,2448.0,2571.0,12207584.0,
1995.0,1579.0,2500.0,2614.0,12207588.0,
1994.0,1578.0,2550.0,2650.0,12207591.0,
1995.0,1579.0,2596.0,2682.0,12207595.0,
1995.0,1578.0,2644.0,2712.0,12207598.0,
1996.0,1575.0,2691.0,2740.0,12207602.0,
1994.0,1578.0,2729.0,2768.0,12207606.0,
1995.0,1582.0,2767.0,2792.0,12207609.0,
1995.0,1578.0,2802.0,2813.0,12207613.0,
1995.0,1578.0,2832.0,2833.0,12207617.0,
1995.0,1579.0,2856.0,2850.0,12207620.0,
1995.0,1579.0,2879.0,2865.0,12207624.0,
2001.0,1580.0,2893.0,2874.0,12207628.0,
1996.0,1579.0,2903.0,2886.0,12207631.0,
1995.0,1577.0,2907.0,2892.0,12207635.0,
1995.0,1577.0,2910.0,2901.0,12207638.0,
1995.0,1580.0,2906.0,2903.0,12207642.0,
1996.0,1579.0,2900.0,2903.0,12207646.0,
1996.0,1579.0,2893.0,2904.0,12207649.0,
1996.0,1580.0,2877.0,2900.0,12207653.0,
1996.0,1579.0,2862.0,2892.0,12207657.0,
1996.0,1579.0,2843.0,2891.0,12207660.0,
1995.0,1578.0,2821.0,2884.0,12207664.0,
1996.0,1580.0,2795.0,2878.0,12207668.0,
1995.0,1579.0,2769.0,2870.0,12207671.0,
1996.0,1579.0,2739.0,2863.0,12207675.0,
1997.0,1579.0,2709.0,2857.0,12207678.0,
1996.0,1580.0,2678.0,2850.0,12207682.0,
1995.0,1578.0,2644.0,2841.0,12207686.0,
1997.0,1579.0,2613.0,2831.0,12207689.0,
1996.0,1575.0,2581.0,2824.0,12207693.0,
1995.0,1580.0,2547.0,2813.0,12207697.0,
1996.0,1580.0,2514.0,2803.0,12207700.0,
1996.0,1581.0,2482.0,2793.0,12207704.0,
1996.0,1580.0,2453.0,2783.0,12207708.0,
1995.0,1580.0,2422.0,2769.0,12207711.0,
1996.0,1580.0,2392.0,2758.0,12207715.0,
1996.0,1580.0,2366.0,2743.0,12207718.0,
1996.0,1580.0,2337.0,2728.0,12207722.0,
1996.0,1580.0,2312.0,2709.0,12207726.0,
1997.0,1581.0,2288.0,2691.0,12207729.0,
1996.0,1581.0,2265.0,2671.0,12207733.0,
1996.0,1580.0,2244.0,2651.0,12207737.0,
1996.0,1581.0,2225.0,2633.0,12207740.0,
1996.0,1581.0,2206.0,2611.0,12207744.0,
1996.0,1580.0,2189.0,2591.0,12207748.0,
1996.0,1580.0,2174.0,2570.0,12207751.0,
1996.0,1581.0,2157.0,2546.0,12207755.0,
1996.0,1581.0,2142.0,2528.0,12207758.0,
1997.0,1580.0,2129.0,2505.0,12207762.0,
1997.0,1582.0,2113.0,2485.0,12207766.0,
1997.0,1575.0,2099.0,2460.0,12207769.0,
1996.0,1582.0,2086.0,2448.0,12207773.0,
1995.0,1580.0,2074.0,2425.0,12207777.0,
1996.0,1580.0,2060.0,2403.0,12207780.0,
1997.0,1582.0,2045.0,2385.0,12207784.0,
1997.0,1581.0,2033.0,2376.0,12207787.0,
1996.0,1581.0,2019.0,2351.0,12207791.0,
1997.0,1580.0,2004.0,2335.0,12207795.0,
1995.0,1581.0,1994.0,2316.0,12207798.0,
1996.0,1581.0,1982.0,2302.0,12207802.0,
1996.0,1580.0,1972.0,2284.0,12207806.0,
1996.0,1584.0,1966.0,2271.0,12207809.0,
1996.0,1582.0,1956.0,2257.0,12207813.0,
1996.0,1582.0,1950.0,2238.0,12207817.0,
1996.0,1582.0,1942.0,2226.0,12207820.0,
1996.0,1582.0,1940.0,2218.0,12207824.0,
1996.0,1581.0,1938.0,2207.0,12207827.0,
1995.0,1581.0,1935.0,2200.0,12207831.0,
1995.0,1581.0,1936.0,2197.0,12207835.0,
1997.0,1583.0,1932.0,2191.0,12207838.0,
1996.0,1583.0,1928.0,2187.0,12207842.0,
1995.0,1581.0,1927.0,2182.0,12207846.0,
1996.0,1581.0,1926.0,2178.0,12207849.0,
1995.0,1581.0,1925.0,2174.0,12207853.0,
1995.0,1582.0,1922.0,2179.0,12207857.0,
1996.0,1582.0,1922.0,2169.0,12207860.0,
1996.0,1581.0,1922.0,2166.0,12207864.0,
1996.0,1581.0,1925.0,2162.0,12207867.0,
1996.0,1581.0,1932.0,2159.0,12207871.0,
1996.0,1584.0,1932.0,2157.0,12207875.0,
1996.0,1582.0,1935.0,2153.0,12207878.0,
1996.0,1581.0,1940.0,2151.0,12207882.0,
1996.0,1581.0,1948.0,2145.0,12207886.0,
1996.0,1580.0,1952.0,2141.0,12207889.0,
1996.0,1582.0,1956.0,2138.0,12207893.0,
1996.0,1582.0,1963.0,2134.0,12207897.0,
1996.0,1582.0,1968.0,2133.0,12207900.0,
1996.0,1581.0,1968.0,2129.0,12207904.0,
1996.0,1579.0,1980.0,2124.0,12207907.0,
1997.0,1583.0,1986.0,2120.0,12207911.0,
1996.0,1582.0,1992.0,2114.0,12207915.0,
2004.0,1582.0,1996.0,2111.0,12207918.0,
1996.0,1576.0,1997.0,2107.0,12207922.0,
1995.0,1583.0,1998.0,2104.0,12207926.0,
1996.0,1582.0,1998.0,2096.0,12207929.0,
1995.0,1581.0,1995.0,2093.0,12207933.0,
1996.0,1582.0,1997.0,2081.0,12207937.0,
1996.0,1581.0,1993.0,2075.0,12207940.0,
1995.0,1580.0,1989.0,2066.0,12207944.0,
1995.0,1582.0,1984.0,2057.0,12207947.0,
1996.0,1577.0,1980.0,2047.0,12207951.0,
1995.0,1580.0,1977.0,2041.0,12207955.0,
1996.0,1581.0,1972.0,2033.0,12207958.0,
1996.0,1580.0,1966.0,2025.0,12207962.0,
1996.0,1581.0,1961.0,2017.0,12207966.0,
1996.0,1580.0,1960.0,2008.0,12207969.0,
1997.0,1580.0,1958.0,2002.0,12207973.0,
1996.0,1581.0,1946.0,1994.0,12207976.0,
1996.0,1579.0,1944.0,1989.0,12207980.0,
1996.0,1580.0,1940.0,1985.0,12207984.0,
1997.0,1579.0,1933.0,1978.0,12207987.0,
1996.0,1579.0,1924.0,1971.0,12207991.0,
1998.0,1579.0,1920.0,1967.0,12207995.0,
1996.0,1580.0,1913.0,1956.0,12207998.0,
1995.0,1579.0,1906.0,1947.0,12208002.0,
1997.0,1579.0,1907.0,1938.0,12208006.0,
1996.0,1579.0,1896.0,1932.0,12208009.0,
1996.0,1579.0,1895.0,1922.0,12208013.0,
1996.0,1579.0,1891.0,1914.0,12208016.0,
1996.0,1579.0,1887.0,1907.0,12208020.0,
1996.0,1577.0,1887.0,1900.0,12208024.0,
1996.0,1577.0,1889.0,1896.0,12208027.0,
1995.0,1579.0,1888.0,1890.0,12208031.0,
1996.0,1578.0,1890.0,1881.0,12208035.0,
1996.0,1578.0,1888.0,1875.0,12208038.0,
1995.0,1579.0,1888.0,1867.0,12208042.0,
1996.0,1580.0,1889.0,1862.0,12208046.0,
1996.0,1578.0,1891.0,1854.0,12208049.0,
1996.0,1577.0,1891.0,1850.0,12208053.0,
1995.0,1577.0,1888.0,1844.0,12208056.0,
1996.0,1578.0,1891.0,1840.0,12208060.0,
1996.0,1578.0,1889.0,1834.0,12208064.0,
1996.0,1580.0,1887.0,1827.0,12208067.0,
1996.0,1576.0,1888.0,1822.0,12208071.0,
1996.0,1577.0,1887.0,1816.0,12208075.0,
1999.0,1577.0,1883.0,1813.0,12208078.0,
1996.0,1577.0,1884.0,1807.0,12208082.0,
1995.0,1577.0,1879.0,1806.0,12208086.0,
1995.0,1577.0,1879.0,1797.0,12208089.0,
1996.0,1576.0,1874.0,1795.0,12208093.0,
1996.0,1577.0,1869.0,1791.0,12208096.0,
1996.0,1576.0,1867.0,1787.0,12208100.0,
1996.0,1575.0,1864.0,1782.0,12208104.0,
1996.0,1576.0,1861.0,1776.0,12208107.0,
1996.0,1575.0,1857.0,1771.0,12208111.0,
1996.0,1576.0,1854.0,1769.0,12208115.0,
1996.0,1573.0,1853.0,1764.0,12208118.0,
1996.0,1576.0,1850.0,1763.0,12208122.0,
1995.0,1575.0,1846.0,1757.0,12208126.0,
1996.0,1574.0,1842.0,1754.0,12208129.0,
1996.0,1575.0,1840.0,1752.0,12208133.0,
1996.0,1577.0,1839.0,1750.0,12208136.0,
1996.0,1575.0,1837.0,1745.0,12208140.0,
1995.0,1575.0,1836.0,1749.0,12208144.0,
1996.0,1577.0,1832.0,1748.0,12208147.0,
1996.0,1575.0,1834.0,1753.0,12208151.0,
1997.0,1576.0,1829.0,1754.0,12208155.0,
1995.0,1575.0,1827.0,1758.0,12208158.0,
1996.0,1575.0,1825.0,1758.0,12208162.0,
1996.0,1576.0,1825.0,1761.0,12208166.0,
1996.0,1575.0,1823.0,1763.0,12208169.0,
1996.0,1575.0,1818.0,1770.0,12208173.0,
1996.0,1576.0,1816.0,1767.0,12208176.0,
1996.0,1576.0,1813.0,1769.0,12208180.0,
1996.0,1575.0,1808.0,1770.0,12208184.0,
1996.0,1575.0,1799.0,1773.0,12208187.0,
1996.0,1574.0,1799.0,1770.0,12208191.0,
1997.0,1575.0,1797.0,1769.0,12208195.0,
1996.0,1573.0,1795.0,1768.0,12208198.0,
1997.0,1573.0,1790.0,1767.0,12208202.0,
1997.0,1574.0,1788.0,1768.0,12208205.0,
1995.0,1574.0,1783.0,1767.0,12208209.0,
1997.0,1575.0,1781.0,1766.0,12208213.0,
1996.0,1573.0,1775.0,1765.0,12208216.0,
1996.0,1575.0,1771.0,1765.0,12208220.0,
1996.0,1573.0,1768.0,1767.0,12208224.0,
1996.0,1574.0,1765.0,1762.0,12208227.0,
1990.0,1574.0,1762.0,1762.0,12208231.0,
1996.0,1575.0,1762.0,1762.0,12208235.0,
1996.0,1573.0,1759.0,1762.0,12208238.0,
1996.0,1574.0,1760.0,1761.0,12208242.0,
1996.0,1574.0,1761.0,1761.0,12208245.0,
1995.0,1571.0,1762.0,1759.0,12208249.0,
1996.0,1572.0,1761.0,1763.0,12208253.0,
2000.0,1574.0,1763.0,1758.0,12208256.0,
1996.0,1573.0,1765.0,1758.0,12208260.0,
1996.0,1573.0,1766.0,1755.0,12208264.0,
1996.0,1573.0,1769.0,1755.0,12208267.0,
1996.0,1573.0,1774.0,1755.0,12208271.0,
1996.0,1573.0,1778.0,1754.0,12208275.0,
1996.0,1573.0,1782.0,1752.0,12208278.0,
1989.0,1568.0,1787.0,1748.0,12208282.0,
1996.0,1573.0,1792.0,1743.0,12208285.0,
1997.0,1573.0,1804.0,1738.0,12208289.0,
1996.0,1574.0,1799.0,1735.0,12208293.0,
1996.0,1573.0,1806.0,1733.0,12208296.0,
1996.0,1573.0,1811.0,1729.0,12208300.0,
1998.0,1576.0,1813.0,1727.0,12208304.0,
1996.0,1573.0,1816.0,1723.0,12208307.0,
1997.0,1574.0,1820.0,1724.0,12208311.0,
1996.0,1573.0,1827.0,1718.0,12208315.0,
1996.0,1573.0,1832.0,1722.0,12208318.0,
1996.0,1573.0,1834.0,1723.0,12208322.0,
1997.0,1573.0,1838.0,1727.0,12208325.0,
1995.0,1573.0,1844.0,1729.0,12208329.0,
1996.0,1572.0,1848.0,1733.0,12208333.0,
1997.0,1575.0,1851.0,1741.0,12208336.0,
1996.0,1572.0,1855.0,1749.0,12208340.0,
1997.0,1573.0,1863.0,1762.0,12208344.0,
1996.0,1575.0,1869.0,1778.0,12208347.0,
1996.0,1575.0,1875.0,1795.0,12208351.0,
1996.0,1573.0,1883.0,1814.0,12208355.0,
1997.0,1573.0,1892.0,1835.0,12208358.0,
1997.0,1573.0,1901.0,1858.0,12208362.0,
1997.0,1575.0,1916.0,1887.0,12208365.0,
1997.0,1573.0,1928.0,1912.0,12208369.0,
1996.0,1572.0,1944.0,1951.0,12208373.0,
1996.0,1573.0,1958.0,1988.0,12208376.0,
1997.0,1572.0,1978.0,2027.0,12208380.0,
1997.0,1573.0,2001.0,2066.0,12208384.0,
1996.0,1573.0,2027.0,2110.0,12208387.0,
1997.0,1574.0,2055.0,2152.0,12208391.0,
1997.0,1572.0,2088.0,2199.0,12208395.0,
1997.0,1574.0,2125.0,2243.0,12208398.0,
1996.0,1573.0,2162.0,2292.0,12208402.0,
1997.0,1572.0,2204.0,2338.0,12208405.0,
1997.0,1572.0,2243.0,2383.0,12208409.0,
1997.0,1572.0,2290.0,2425.0,12208413.0,
1997.0,1572.0,2337.0,2471.0,12208416.0,
1997.0,1572.0,2384.0,2512.0,12208420.0,
1997.0,1570.0,2435.0,2554.0,12208424.0,
1996.0,1572.0,2483.0,2590.0,12208427.0,
1997.0,1573.0,2532.0,2633.0,12208431.0,
1997.0,1573.0,2579.0,2667.0,12208434.0,
1997.0,1571.0,2622.0,2702.0,12208438.0,
1997.0,1572.0,2670.0,2731.0,12208442.0,
1998.0,1570.0,2708.0,2760.0,12208445.0,
1997.0,1573.0,2747.0,2780.0,12208449.0,
1997.0,1573.0,2781.0,2798.0,12208453.0,
1998.0,1571.0,2811.0,2816.0,12208456.0,
1999.0,1572.0,2836.0,2835.0,12208460.0,
1997.0,1573.0,2858.0,2850.0,12208464.0,
1998.0,1572.0,2875.0,2861.0,12208467.0,
1998.0,1573.0,2888.0,2869.0,12208471.0,
1998.0,1572.0,2899.0,2878.0,12208474.0,
1997.0,1573.0,2903.0,2882.0,12208478.0,
1998.0,1571.0,2902.0,2884.0,12208482.0,
1999.0,1572.0,2899.0,2884.0,12208485.0,
1998.0,1570.0,2888.0,2880.0,12208489.0,
1999.0,1572.0,2876.0,2874.0,12208493.0,
1999.0,1572.0,2858.0,2866.0,12208496.0,
1999.0,1571.0,2841.0,2859.0,12208500.0,
1998.0,1572.0,2816.0,2853.0,12208504.0,
1997.0,1572.0,2792.0,2841.0,12208507.0,
1998.0,1571.0,2768.0,2835.0,12208511.0,
1999.0,1571.0,2739.0,2827.0,12208514.0,
1999.0,1572.0,2708.0,2816.0,12208518.0,
1998.0,1572.0,2673.0,2808.0,12208522.0,
1999.0,1572.0,2640.0,2798.0,12208525.0,
1999.0,1570.0,2606.0,2787.0,12208529.0,
1999.0,1572.0,2577.0,2777.0,12208533.0,
2000.0,1572.0,2540.0,2760.0,12208536.0,
1999.0,1572.0,2510.0,2746.0,12208540.0,
2001.0,1570.0,2475.0,2730.0,12208544.0,
1999.0,1572.0,2444.0,2715.0,12208547.0,
1999.0,1572.0,2411.0,2695.0,12208551.0,
1999.0,1570.0,2379.0,2679.0,12208554.0,
2000.0,1571.0,2353.0,2660.0,12208558.0,
2000.0,1571.0,2323.0,2641.0,12208562.0,
1998.0,1572.0,2295.0,2621.0,12208565.0,
1999.0,1572.0,2269.0,2603.0,12208569.0,
1999.0,1573.0,2245.0,2578.0,12208573.0,
1999.0,1571.0,2223.0,2559.0,12208576.0,
1999.0,1573.0,2201.0,2539.0,12208580.0,
1998.0,1572.0,2179.0,2518.0,12208584.0,
1998.0,1573.0,2159.0,2496.0,12208587.0,
1999.0,1570.0,2139.0,2477.0,12208591.0,
1998.0,1571.0,2120.0,2457.0,12208594.0,
2000.0,1572.0,2103.0,2439.0,12208598.0,
1999.0,1571.0,2086.0,2415.0,12208602.0,
1999.0,1572.0,2073.0,2403.0,12208605.0,
1999.0,1571.0,2058.0,2380.0,12208609.0,
1998.0,1571.0,2044.0,2364.0,12208613.0,
1998.0,1571.0,2031.0,2348.0,12208616.0,
1999.0,1571.0,2020.0,2332.0,12208620.0,
1998.0,1571.0,2007.0,2319.0,12208624.0,
2000.0,1569.0,1993.0,2307.0,12208627.0,
1998.0,1569.0,1982.0,2294.0,12208631.0,
1999.0,1570.0,1972.0,2281.0,12208634.0,
1999.0,1566.0,1964.0,2270.0,12208638.0,
1998.0,1570.0,1953.0,2260.0,12208642.0,
1999.0,1571.0,1945.0,2252.0,12208645.0,
1999.0,1573.0,1938.0,2241.0,12208649.0,
1998.0,1571.0,1933.0,2230.0,12208653.0,
1993.0,1571.0,1929.0,2224.0,12208656.0,
1999.0,1571.0,1923.0,2215.0,12208660.0,
1998.0,1572.0,1919.0,2209.0,12208663.0,
1999.0,1570.0,1915.0,2203.0,12208667.0,
1998.0,1571.0,1915.0,2199.0,12208671.0,
1998.0,1570.0,1913.0,2190.0,12208674.0,
1998.0,1571.0,1914.0,2190.0,12208678.0,
2003.0,1570.0,1912.0,2187.0,12208682.0,
2000.0,1572.0,1912.0,2181.0,12208685.0,
1998.0,1569.0,1912.0,2177.0,12208689.0,
2000.0,1571.0,1915.0,2176.0,12208693.0,
1998.0,1571.0,1918.0,2169.0,12208696.0,
1999.0,1569.0,1920.0,2167.0,12208700.0,
1998.0,1570.0,1922.0,2163.0,12208703.0,
1999.0,1570.0,1926.0,2162.0,12208707.0,
1998.0,1571.0,1931.0,2159.0,12208711.0,
1999.0,1571.0,1936.0,2153.0,12208714.0,
1998.0,1571.0,1942.0,2150.0,12208718.0,
1998.0,1570.0,1947.0,2144.0,12208722.0,
1998.0,1571.0,1954.0,2140.0,12208725.0,
1999.0,1570.0,1955.0,2132.0,12208729.0,
1998.0,1571.0,1960.0,2132.0,12208733.0,
1993.0,1570.0,1964.0,2128.0,12208736.0,
1999.0,1571.0,1964.0,2128.0,12208740.0,
1998.0,1573.0,1967.0,2121.0,12208743.0,
2000.0,1571.0,1967.0,2119.0,12208747.0,
1994.0,1571.0,1971.0,2113.0,12208751.0,
1999.0,1576.0,1973.0,2110.0,12208754.0,
1999.0,1572.0,1978.0,2103.0,12208758.0,
1999.0,1571.0,1976.0,2097.0,12208762.0,
1999.0,1571.0,1978.0,2089.0,12208765.0,
1998.0,1572.0,1976.0,2085.0,12208769.0,
2000.0,1572.0,1972.0,2077.0,12208773.0,
1998.0,1571.0,1974.0,2071.0,12208776.0,
1998.0,1570.0,1971.0,2062.0,12208780.0,
1999.0,1571.0,1966.0,2059.0,12208783.0,
1999.0,1570.0,1964.0,2048.0,12208787.0,
1998.0,1570.0,1959.0,2042.0,12208791.0,
1999.0,1572.0,1953.0,2034.0,12208794.0,
1999.0,1570.0,1945.0,2024.0,12208798.0,
1999.0,1571.0,1942.0,2014.0,12208802.0,
1999.0,1569.0,1935.0,2005.0,12208805.0,
1999.0,1571.0,1928.0,1992.0,12208809.0,
1998.0,1572.0,1921.0,1982.0,12208813.0,
1998.0,1573.0,1914.0,1971.0,12208816.0,
1995.0,1571.0,1909.0,1959.0,12208820.0,
1998.0,1571.0,1903.0,1951.0,12208823.0,
1998.0,1572.0,1894.0,1939.0,12208827.0,
1998.0,1572.0,1890.0,1922.0,12208831.0,
1999.0,1571.0,1883.0,1914.0,12208834.0,
1998.0,1569.0,1875.0,1903.0,12208838.0,
1999.0,1571.0,1869.0,1888.0,12208842.0,
1998.0,1571.0,1864.0,1876.0,12208845.0,
1998.0,1571.0,1858.0,1867.0,12208849.0,
2000.0,1573.0,1852.0,1857.0,12208852.0,
2005.0,1571.0,1849.0,1849.0,12208856.0,
1998.0,1570.0,1843.0,1839.0,12208860.0,
1998.0,1572.0,1837.0,1831.0,12208863.0,
1999.0,1570.0,1834.0,1823.0,12208867.0,
1998.0,1571.0,1831.0,1813.0,12208871.0,
1999.0,1571.0,1825.0,1805.0,12208874.0,
1998.0,1571.0,1823.0,1798.0,12208878.0,
1998.0,1570.0,1822.0,1791.0,12208882.0,
1999.0,1572.0,1823.0,1783.0,12208885.0,
1998.0,1569.0,1815.0,1780.0,12208889.0,
1998.0,1571.0,1814.0,1774.0,12208892.0,
1998.0,1572.0,1813.0,1768.0,12208896.0,
1999.0,1571.0,1812.0,1763.0,12208900.0,
1998.0,1571.0,1813.0,1758.0,12208903.0,
1998.0,1574.0,1810.0,1757.0,12208907.0,
2003.0,1572.0,1810.0,1752.0,12208911.0,
1998.0,1573.0,1808.0,1752.0,12208914.0,
1998.0,1572.0,1809.0,1746.0,12208918.0,
1998.0,1572.0,1810.0,1747.0,12208922.0,
1999.0,1572.0,1808.0,1741.0,12208925.0,
1998.0,1571.0,1808.0,1737.0,12208929.0,
1997.0,1570.0,1810.0,1734.0,12208932.0,
1998.0,1571.0,1812.0,1730.0,12208936.0,
1998.0,1571.0,1812.0,1720.0,12208940.0,
1999.0,1572.0,1811.0,1719.0,12208943.0,
1998.0,1572.0,1815.0,1711.0,12208947.0,
1997.0,1572.0,1814.0,1704.0,12208951.0,
2000.0,1570.0,1816.0,1699.0,12208954.0,
1999.0,1571.0,1816.0,1693.0,12208958.0,
1998.0,1571.0,1815.0,1685.0,12208962.0,
1998.0,1571.0,1815.0,1682.0,12208965.0,
1998.0,1571.0,1816.0,1677.0,12208969.0,
1998.0,1571.0,1819.0,1674.0,12208972.0,
1993.0,1569.0,1821.0,1674.0,12208976.0,
1999.0,1570.0,1822.0,1669.0,12208980.0,
1998.0,1571.0,1823.0,1672.0,12208983.0,
1998.0,1571.0,1822.0,1668.0,12208987.0,
1999.0,1570.0,1821.0,1673.0,12208991.0,
1998.0,1570.0,1822.0,1671.0,12208994.0,
1998.0,1570.0,1825.0,1671.0,12208998.0,
1998.0,1571.0,1822.0,1668.0,12209002.0,
1998.0,1571.0,1822.0,1672.0,12209005.0,
1999.0,1570.0,1822.0,1670.0,12209009.0,
1998.0,1570.0,1824.0,1669.0,12209012.0,
1998.0,1571.0,1820.0,1669.0,12209016.0,
1998.0,1570.0,1823.0,1667.0,12209020.0,
1995.0,1570.0,1823.0,1665.0,12209023.0,
1999.0,1571.0,1820.0,1665.0,12209027.0,
1999.0,1571.0,1820.0,1662.0,12209031.0,
1998.0,1571.0,1820.0,1661.0,12209034.0,
1998.0,1571.0,1821.0,1657.0,12209038.0,
1999.0,1571.0,1820.0,1655.0,12209042.0,
1998.0,1570.0,1819.0,1652.0,12209045.0,
1997.0,1569.0,1818.0,1655.0,12209049.0,
1998.0,1570.0,1817.0,1652.0,12209052.0,
1998.0,1574.0,1818.0,1652.0,12209056.0,
1998.0,1570.0,1818.0,1650.0,12209060.0,
1998.0,1571.0,1816.0,1654.0,12209063.0,
1998.0,1571.0,1816.0,1654.0,12209067.0,
2001.0,1571.0,1813.0,1658.0,12209071.0,
1999.0,1571.0,1815.0,1657.0,12209074.0,
1999.0,1572.0,1813.0,1657.0,12209078.0,
2004.0,1570.0,1816.0,1659.0,12209081.0,
1997.0,1569.0,1819.0,1660.0,12209085.0,
1998.0,1571.0,1821.0,1660.0,12209089.0,
1997.0,1569.0,1821.0,1662.0,12209092.0,
1998.0,1570.0,1821.0,1659.0,12209096.0,
1998.0,1570.0,1824.0,1656.0,12209100.0,
1998.0,1571.0,1820.0,1655.0,12209103.0,
1998.0,1571.0,1826.0,1652.0,12209107.0,
1998.0,1570.0,1826.0,1655.0,12209111.0,
1998.0,1568.0,1826.0,1654.0,12209114.0,
1998.0,1570.0,1829.0,1655.0,12209118.0,
1999.0,1569.0,1826.0,1652.0,12209121.0,
1998.0,1570.0,1828.0,1653.0,12209125.0,
1999.0,1571.0,1826.0,1652.0,12209129.0,
1998.0,1570.0,1826.0,1648.0,12209132.0,
1999.0,1570.0,1828.0,1647.0,12209136.0,
1998.0,1569.0,1825.0,1645.0,12209140.0,
1998.0,1569.0,1824.0,1641.0,12209143.0,
2001.0,1568.0,1824.0,1642.0,12209147.0,
1999.0,1570.0,1822.0,1637.0,12209151.0,
1998.0,1570.0,1823.0,1640.0,12209154.0,
1999.0,1570.0,1819.0,1641.0,12209158.0,
1998.0,1571.0,1820.0,1639.0,12209161.0,
1998.0,1570.0,1816.0,1642.0,12209165.0,
1999.0,1570.0,1814.0,1642.0,12209169.0,
2000.0,1570.0,1817.0,1647.0,12209172.0,
1998.0,1570.0,1815.0,1648.0,12209176.0,
1999.0,1570.0,1813.0,1651.0,12209180.0,
1999.0,1569.0,1812.0,1652.0,12209183.0,
1998.0,1568.0,1810.0,1658.0,12209187.0,
1999.0,1572.0,1810.0,1663.0,12209191.0,
1998.0,1570.0,1810.0,1674.0,12209194.0,
1998.0,1569.0,1811.0,1681.0,12209198.0,
2004.0,1569.0,1810.0,1696.0,12209201.0,
1998.0,1570.0,1810.0,1712.0,12209205.0,
1999.0,1571.0,1810.0,1727.0,12209209.0,
1998.0,1570.0,1816.0,1748.0,12209212.0,
1999.0,1570.0,1819.0,1775.0,12209216.0,
1998.0,1571.0,1824.0,1800.0,12209220.0,
1998.0,1570.0,1834.0,1826.0,12209223.0,
1999.0,1572.0,1842.0,1863.0,12209227.0,
1998.0,1571.0,1851.0,1897.0,12209231.0,
1999.0,1572.0,1866.0,1936.0,12209234.0,
1999.0,1571.0,1883.0,1975.0,12209238.0,
1998.0,1571.0,1904.0,2017.0,12209241.0,
1999.0,1572.0,1929.0,2062.0,12209245.0,
1999.0,1576.0,1954.0,2106.0,12209249.0,
1999.0,1571.0,1985.0,2154.0,12209252.0,
1999.0,1570.0,2018.0,2207.0,12209256.0,
1999.0,1570.0,2058.0,2256.0,12209260.0,
1994.0,1572.0,2098.0,2311.0,12209263.0,
1999.0,1570.0,2145.0,2358.0,12209267.0,
2000.0,1571.0,2193.0,2412.0,12209270.0,
1999.0,1570.0,2244.0,2464.0,12209274.0,
1996.0,1571.0,2294.0,2512.0,12209278.0,
1999.0,1568.0,2349.0,2563.0,12209281.0,
1999.0,1569.0,2404.0,2608.0,12209285.0,
1999.0,1571.0,2461.0,2655.0,12209289.0,
1999.0,1571.0,2517.0,2694.0,12209292.0,
1999.0,1569.0,2571.0,2735.0,12209296.0,
1999.0,1571.0,2627.0,2778.0,12209300.0,
2000.0,1572.0,2680.0,2813.0,12209303.0,
1999.0,1569.0,2727.0,2845.0,12209307.0,
2000.0,1571.0,2774.0,2878.0,12209310.0,
1999.0,1571.0,2819.0,2914.0,12209314.0,
2001.0,1571.0,2857.0,2938.0,12209318.0,
2000.0,1571.0,2892.0,2962.0,12209321.0,
2000.0,1571.0,2921.0,2981.0,12209325.0,
2000.0,1571.0,2947.0,2998.0,12209329.0,
1999.0,1571.0,2969.0,3013.0,12209332.0,
1999.0,1566.0,2988.0,3026.0,12209336.0,
2000.0,1572.0,2999.0,3033.0,12209340.0,
2000.0,1571.0,3006.0,3041.0,12209343.0,
2000.0,1572.0,3003.0,3043.0,12209347.0,
2000.0,1570.0,3002.0,3046.0,12209350.0,
2001.0,1572.0,2995.0,3049.0,12209354.0,
2001.0,1572.0,2985.0,3043.0,12209358.0,
2001.0,1571.0,2969.0,3046.0,12209361.0,
2000.0,1570.0,2951.0,3042.0,12209365.0,
2000.0,1572.0,2932.0,3040.0,12209369.0,
2000.0,1572.0,2909.0,3034.0,12209372.0,
2000.0,1574.0,2885.0,3030.0,12209376.0,
2000.0,1569.0,2857.0,3023.0,12209380.0,
2000.0,1572.0,2832.0,3015.0,12209383.0,
2000.0,1571.0,2797.0,3006.0,12209387.0,
1998.0,1570.0,2770.0,2996.0,12209390.0,
2001.0,1572.0,2736.0,2986.0,12209394.0,
2001.0,1571.0,2706.0,2975.0,12209398.0,
2001.0,1570.0,2673.0,2962.0,12209401.0,
2000.0,1570.0,2643.0,2948.0,12209405.0,
2000.0,1571.0,2612.0,2938.0,12209409.0,
2001.0,1572.0,2582.0,2922.0,12209412.0,
2002.0,1571.0,2551.0,2908.0,12209416.0,
2000.0,1570.0,2521.0,2891.0,12209420.0,
2002.0,1571.0,2492.0,2871.0,12209423.0,
2001.0,1570.0,2465.0,2853.0,12209427.0,
2001.0,1573.0,2440.0,2836.0,12209430.0,
2001.0,1570.0,2413.0,2817.0,12209434.0,
2000.0,1571.0,2389.0,2794.0,12209438.0,
2001.0,1572.0,2365.0,2771.0,12209441.0,
2001.0,1572.0,2341.0,2748.0,12209445.0,
2000.0,1569.0,2319.0,2724.0,12209449.0,
2001.0,1570.0,2299.0,2701.0,12209452.0,
2001.0,1571.0,2279.0,2678.0,12209456.0,
2007.0,1570.0,2258.0,2650.0,12209460.0,
2001.0,1572.0,2239.0,2628.0,12209463.0,
2001.0,1570.0,2220.0,2602.0,12209467.0,
2001.0,1571.0,2202.0,2577.0,12209470.0,
2001.0,1571.0,2188.0,2553.0,12209474.0,
2001.0,1569.0,2168.0,2528.0,12209478.0,
2000.0,1571.0,2149.0,2506.0,12209481.0,
2001.0,1570.0,2138.0,2482.0,12209485.0,
2001.0,1571.0,2118.0,2459.0,12209489.0,
2001.0,1570.0,2102.0,2439.0,12209492.0,
2001.0,1571.0,2086.0,2420.0,12209496.0,
2001.0,1569.0,2071.0,2400.0,12209499.0,
2001.0,1570.0,2055.0,2383.0,12209503.0,
2001.0,1570.0,2042.0,2366.0,12209507.0,
2001.0,1571.0,2030.0,2349.0,12209510.0,
2001.0,1571.0,2017.0,2334.0,12209514.0,
2001.0,1572.0,2007.0,2317.0,12209518.0,
2001.0,1570.0,1996.0,2305.0,12209521.0,
2001.0,1571.0,1984.0,2289.0,12209525.0,
2001.0,1570.0,1977.0,2278.0,12209529.0,
2002.0,1570.0,1967.0,2270.0,12209532.0,
2001.0,1569.0,1962.0,2258.0,12209536.0,
2002.0,1568.0,1953.0,2249.0,12209539.0,
2001.0,1568.0,1949.0,2243.0,12209543.0,
2001.0,1569.0,1944.0,2233.0,12209547.0,
2002.0,1569.0,1945.0,2228.0,12209550.0,
2001.0,1569.0,1937.0,2221.0,12209554.0,
2002.0,1570.0,1936.0,2215.0,12209558.0,
2001.0,1570.0,1934.0,2206.0,12209561.0,
2002.0,1570.0,1933.0,2201.0,12209565.0,
2001.0,1575.0,1931.0,2193.0,12209569.0,
2004.0,1570.0,1934.0,2189.0,12209572.0,
2001.0,1570.0,1935.0,2185.0,12209576.0,
2001.0,1570.0,1938.0,2180.0,12209579.0,
2002.0,1570.0,1941.0,2174.0,12209583.0,
2002.0,1569.0,1947.0,2171.0,12209587.0,
2000.0,1570.0,1953.0,2168.0,12209590.0,
2002.0,1569.0,1958.0,2168.0,12209594.0,
2001.0,1572.0,1963.0,2163.0,12209598.0,
2002.0,1569.0,1968.0,2161.0,12209601.0,
2001.0,1568.0,1974.0,2155.0,12209605.0,
2002.0,1569.0,1982.0,2152.0,12209609.0,
2001.0,1571.0,1989.0,2147.0,12209612.0,
2002.0,1570.0,1994.0,2138.0,12209616.0,
2002.0,1569.0,2000.0,2134.0,12209619.0,
2002.0,1569.0,2003.0,2126.0,12209623.0,
2002.0,1569.0,2010.0,2121.0,12209627.0,
2001.0,1570.0,2014.0,2109.0,12209630.0,
2001.0,1569.0,2016.0,2102.0,12209634.0,
2001.0,1570.0,2019.0,2093.0,12209638.0,
2001.0,1570.0,2022.0,2086.0,12209641.0,
2001.0,1571.0,2022.0,2076.0,12209645.0,
2004.0,1570.0,2023.0,2068.0,12209649.0,
2002.0,1571.0,2025.0,2062.0,12209652.0,
2002.0,1570.0,2023.0,2057.0,12209656.0,
2001.0,1569.0,2023.0,2053.0,12209659.0,
2001.0,1571.0,2020.0,2049.0,12209663.0,
2002.0,1564.0,2019.0,2042.0,12209667.0,
2002.0,1570.0,2015.0,2034.0,12209670.0,
2001.0,1572.0,2008.0,2027.0,12209674.0,
2002.0,1569.0,2004.0,2021.0,12209678.0,
2000.0,1569.0,1999.0,2015.0,12209681.0,
2002.0,1569.0,1991.0,2010.0,12209685.0,
2001.0,1569.0,1984.0,2003.0,12209688.0,
2001.0,1569.0,1980.0,1999.0,12209692.0,
2002.0,1568.0,1976.0,1992.0,12209696.0,
2005.0,1570.0,1973.0,1988.0,12209699.0,
2001.0,1571.0,1963.0,1983.0,12209703.0,
2000.0,1569.0,1956.0,1981.0,12209707.0,
2003.0,1569.0,1948.0,1978.0,12209710.0,
2006.0,1570.0,1941.0,1978.0,12209714.0,
2001.0,1569.0,1932.0,1972.0,12209718.0,
2001.0,1570.0,1927.0,1969.0,12209721.0,
2001.0,1571.0,1919.0,1966.0,12209725.0,
2003.0,1570.0,1914.0,1963.0,12209728.0,
2001.0,1569.0,1908.0,1959.0,12209732.0,
2001.0,1570.0,1904.0,1956.0,12209736.0,
2002.0,1572.0,1898.0,1951.0,12209739.0,
2001.0,1571.0,1888.0,1945.0,12209743.0,
2001.0,1571.0,1888.0,1943.0,12209747.0,
2001.0,1569.0,1881.0,1939.0,12209750.0,
2001.0,1571.0,1875.0,1936.0,12209754.0,
2001.0,1570.0,1870.0,1931.0,12209758.0,
1998.0,1570.0,1864.0,1928.0,12209761.0,
2001.0,1570.0,1862.0,1926.0,12209765.0,
2001.0,1572.0,1858.0,1920.0,12209768.0,
2001.0,1570.0,1855.0,1915.0,12209772.0,
2001.0,1571.0,1851.0,1913.0,12209776.0,
2000.0,1570.0,1849.0,1906.0,12209779.0,
2002.0,1570.0,1848.0,1905.0,12209783.0,
2000.0,1569.0,1848.0,1896.0,12209787.0,
2002.0,1571.0,1844.0,1894.0,12209790.0,
2001.0,1569.0,1841.0,1891.0,12209794.0,
2001.0,1572.0,1841.0,1888.0,12209798.0,
2001.0,1570.0,1841.0,1876.0,12209801.0,
2001.0,1570.0,1841.0,1872.0,12209805.0,
2004.0,1571.0,1841.0,1865.0,12209808.0,
2001.0,1571.0,1840.0,1860.0,12209812.0,
2001.0,1571.0,1841.0,1851.0,12209816.0,
2000.0,1569.0,1842.0,1849.0,12209819.0,
2001.0,1571.0,1841.0,1843.0,12209823.0,
2001.0,1571.0,1843.0,1838.0,12209827.0,
2001.0,1571.0,1843.0,1828.0,12209830.0,
2002.0,1570.0,1845.0,1824.0,12209834.0,
2001.0,1571.0,1844.0,1816.0,12209838.0,
2001.0,1568.0,1844.0,1811.0,12209841.0,
2001.0,1570.0,1846.0,1803.0,12209845.0,
2001.0,1571.0,1848.0,1795.0,12209848.0,
2001.0,1570.0,1850.0,1788.0,12209852.0,
2001.0,1570.0,1852.0,1782.0,12209856.0,
2001.0,1575.0,1853.0,1775.0,12209859.0,
2001.0,1571.0,1856.0,1773.0,12209863.0,
2001.0,1570.0,1856.0,1766.0,12209867.0,
2001.0,1570.0,1856.0,1763.0,12209870.0,
2001.0,1569.0,1860.0,1760.0,12209874.0,
2001.0,1571.0,1858.0,1758.0,12209877.0,
2001.0,1571.0,1862.0,1758.0,12209881.0,
2002.0,1571.0,1862.0,1763.0,12209885.0,
2000.0,1571.0,1866.0,1761.0,12209888.0,
2001.0,1571.0,1868.0,1760.0,12209892.0,
2001.0,1570.0,1865.0,1760.0,12209896.0,
2002.0,1570.0,1868.0,1757.0,12209899.0,
2002.0,1571.0,1869.0,1754.0,12209903.0,
2000.0,1570.0,1863.0,1755.0,12209907.0,
2001.0,1572.0,1861.0,1750.0,12209910.0,
2002.0,1569.0,1861.0,1750.0,12209914.0,
2001.0,1570.0,1860.0,1748.0,12209917.0,
2001.0,1570.0,1858.0,1744.0,12209921.0,
2001.0,1570.0,1856.0,1736.0,12209925.0,
2001.0,1571.0,1855.0,1736.0,12209928.0,
2001.0,1569.0,1851.0,1735.0,12209932.0,
2002.0,1569.0,1850.0,1730.0,12209936.0,
2002.0,1569.0,1846.0,1726.0,12209939.0,
2001.0,1572.0,1846.0,1717.0,12209943.0,
2003.0,1571.0,1843.0,1718.0,12209947.0,
2002.0,1569.0,1839.0,1712.0,12209950.0,
2002.0,1570.0,1840.0,1709.0,12209954.0,
2005.0,1569.0,1835.0,1706.0,12209957.0,
2001.0,1570.0,1833.0,1703.0,12209961.0,
2001.0,1569.0,1832.0,1702.0,12209965.0,
2002.0,1569.0,1828.0,1698.0,12209968.0,
2001.0,1572.0,1827.0,1696.0,12209972.0,
2001.0,1568.0,1826.0,1685.0,12209976.0,
2001.0,1571.0,1824.0,1687.0,12209979.0,
2000.0,1570.0,1818.0,1684.0,12209983.0,
2001.0,1573.0,1818.0,1677.0,12209987.0,
2001.0,1569.0,1816.0,1671.0,12209990.0,
2002.0,1570.0,1817.0,1671.0,12209994.0,
2002.0,1568.0,1815.0,1666.0,12209997.0,
2001.0,1570.0,1815.0,1664.0,12210001.0,
2001.0,1569.0,1813.0,1664.0,12210005.0,
2001.0,1569.0,1812.0,1662.0,12210008.0,
2002.0,1569.0,1812.0,1662.0,12210012.0,
1997.0,1570.0,1812.0,1657.0,12210016.0,
2002.0,1571.0,1811.0,1659.0,12210019.0,
2001.0,1569.0,1812.0,1655.0,12210023.0,
2001.0,1568.0,1810.0,1647.0,12210027.0,
2001.0,1570.0,1811.0,1650.0,12210030.0,
2001.0,1569.0,1811.0,1650.0,12210034.0,
2002.0,1569.0,1811.0,1643.0,12210037.0,
2001.0,1569.0,1812.0,1644.0,12210041.0,
2001.0,1569.0,1808.0,1641.0,12210045.0,
2002.0,1569.0,1812.0,1642.0,12210048.0,
2002.0,1569.0,1814.0,1638.0,12210052.0,
2002.0,1569.0,1815.0,1638.0,12210056.0,
2002.0,1570.0,1818.0,1637.0,12210059.0,
2001.0,1569.0,1822.0,1639.0,12210063.0,
1998.0,1569.0,1822.0,1641.0,12210066.0,
2001.0,1568.0,1826.0,1642.0,12210070.0,
2001.0,1568.0,1829.0,1646.0,12210074.0,
2001.0,1569.0,1830.0,1651.0,12210077.0,
2004.0,1570.0,1834.0,1658.0,12210081.0,
2001.0,1569.0,1838.0,1665.0,12210085.0,
2001.0,1569.0,1839.0,1676.0,12210088.0,
2002.0,1570.0,1841.0,1691.0,12210092.0,
2001.0,1569.0,1843.0,1706.0,12210096.0,
2003.0,1570.0,1850.0,1723.0,12210099.0,
2001.0,1572.0,1854.0,1743.0,12210103.0,
2002.0,1571.0,1858.0,1767.0,12210106.0,
2002.0,1571.0,1861.0,1792.0,12210110.0,
2002.0,1569.0,1867.0,1819.0,12210114.0,
2002.0,1570.0,1873.0,1855.0,12210117.0,
2001.0,1571.0,1885.0,1890.0,12210121.0,
1999.0,1569.0,1898.0,1934.0,12210125.0,
2001.0,1571.0,1914.0,1977.0,12210128.0,
2002.0,1572.0,1932.0,2025.0,12210132.0,
2001.0,1568.0,1955.0,2079.0,12210136.0,
2002.0,1570.0,1979.0,2128.0,12210139.0,
2000.0,1570.0,2010.0,2179.0,12210143.0,
2003.0,1572.0,2046.0,2237.0,12210146.0,
2002.0,1572.0,2085.0,2293.0,12210150.0,
2004.0,1572.0,2126.0,2348.0,12210154.0,
2001.0,1565.0,2173.0,2403.0,12210157.0,
2002.0,1569.0,2219.0,2458.0,12210161.0,
2002.0,1572.0,2271.0,2514.0,12210165.0,
2002.0,1571.0,2322.0,2569.0,12210168.0,
2002.0,1576.0,2377.0,2622.0,12210172.0,
2002.0,1571.0,2432.0,2671.0,12210176.0,
2003.0,1570.0,2487.0,2720.0,12210179.0,
2002.0,1571.0,2544.0,2767.0,12210183.0,
2002.0,1567.0,2597.0,2811.0,12210186.0,
2003.0,1570.0,2649.0,2853.0,12210190.0,
2003.0,1572.0,2701.0,2891.0,12210194.0,
2004.0,1572.0,2749.0,2927.0,12210197.0,
2002.0,1572.0,2796.0,2959.0,12210201.0,
2003.0,1572.0,2839.0,2989.0,12210205.0,
2004.0,1572.0,2874.0,3016.0,12210208.0,
2003.0,1572.0,2910.0,3036.0,12210212.0,
2003.0,1571.0,2939.0,3054.0,12210216.0,
2004.0,1572.0,2965.0,3072.0,12210219.0,
2003.0,1572.0,2987.0,3084.0,12210223.0,
2003.0,1573.0,3004.0,3100.0,12210226.0,
2003.0,1571.0,3014.0,3111.0,12210230.0,
2003.0,1569.0,3024.0,3115.0,12210234.0,
2003.0,1573.0,3029.0,3125.0,12210237.0,
2003.0,1572.0,3027.0,3131.0,12210241.0,
2004.0,1572.0,3020.0,3130.0,12210245.0,
2004.0,1571.0,3009.0,3127.0,12210248.0,
2004.0,1574.0,2997.0,3125.0,12210252.0,
2005.0,1573.0,2976.0,3118.0,12210255.0,
2003.0,1571.0,2958.0,3110.0,12210259.0,
2003.0,1572.0,2935.0,3100.0,12210263.0,
2004.0,1572.0,2909.0,3089.0,12210266.0,
2004.0,1574.0,2882.0,3075.0,12210270.0,
2004.0,1573.0,2853.0,3064.0,12210274.0,
2003.0,1575.0,2822.0,3053.0,12210277.0,
2004.0,1573.0,2783.0,3040.0,12210281.0,
2003.0,1572.0,2748.0,3026.0,12210285.0,
2003.0,1573.0,2711.0,3008.0,12210288.0,
2005.0,1573.0,2673.0,2994.0,12210292.0,
2004.0,1574.0,2637.0,2977.0,12210295.0,
2004.0,1574.0,2600.0,2958.0,12210299.0,
2004.0,1574.0,2560.0,2948.0,12210303.0,
2004.0,1572.0,2528.0,2921.0,12210306.0,
2004.0,1574.0,2492.0,2904.0,12210310.0,
2003.0,1574.0,2458.0,2884.0,12210314.0,
2004.0,1574.0,2428.0,2868.0,12210317.0,
2004.0,1573.0,2396.0,2847.0,12210321.0,
2005.0,1574.0,2365.0,2828.0,12210325.0,
2004.0,1574.0,2338.0,2807.0,12210328.0,
2004.0,1574.0,2309.0,2787.0,12210332.0,
2004.0,1574.0,2282.0,2765.0,12210335.0,
2004.0,1571.0,2256.0,2742.0,12210339.0,
2005.0,1573.0,2231.0,2722.0,12210343.0,
2004.0,1573.0,2208.0,2695.0,12210346.0,
2004.0,1573.0,2187.0,2673.0,12210350.0,
2004.0,1574.0,2169.0,2648.0,12210354.0,
2004.0,1573.0,2149.0,2622.0,12210357.0,
2004.0,1574.0,2131.0,2598.0,12210361.0,
2005.0,1573.0,2114.0,2575.0,12210365.0,
2004.0,1572.0,2098.0,2557.0,12210368.0,
2004.0,1573.0,2084.0,2537.0,12210372.0,
1998.0,1572.0,2070.0,2517.0,12210375.0,
2005.0,1573.0,2057.0,2501.0,12210379.0,
2005.0,1573.0,2046.0,2478.0,12210383.0,
2004.0,1570.0,2032.0,2468.0,12210386.0,
2004.0,1572.0,2020.0,2447.0,12210390.0,
2004.0,1570.0,2010.0,2431.0,12210394.0,
2004.0,1572.0,2002.0,2413.0,12210397.0,
2004.0,1576.0,1991.0,2398.0,12210401.0,
2004.0,1573.0,1984.0,2382.0,12210405.0,
2004.0,1573.0,1976.0,2377.0,12210408.0,
2004.0,1573.0,1981.0,2358.0,12210412.0,
2003.0,1572.0,1970.0,2351.0,12210415.0,
2004.0,1572.0,1969.0,2340.0,12210419.0,
2004.0,1573.0,1966.0,2333.0,12210423.0,
2004.0,1574.0,1966.0,2325.0,12210426.0,
2004.0,1574.0,1965.0,2315.0,12210430.0,
2004.0,1574.0,1966.0,2307.0,12210434.0,
2004.0,1573.0,1963.0,2298.0,12210437.0,
2003.0,1575.0,1966.0,2293.0,12210441.0,
2004.0,1574.0,1966.0,2290.0,12210445.0,
2004.0,1575.0,1972.0,2283.0,12210448.0,
2004.0,1574.0,1976.0,2275.0,12210452.0,
2004.0,1574.0,1979.0,2272.0,12210455.0,
2001.0,1573.0,1985.0,2264.0,12210459.0,
2004.0,1575.0,1990.0,2261.0,12210463.0,
2002.0,1576.0,1995.0,2252.0,12210466.0,
2004.0,1574.0,2000.0,2245.0,12210470.0,
2004.0,1575.0,2006.0,2235.0,12210474.0,
2003.0,1575.0,2015.0,2230.0,12210477.0,
2004.0,1574.0,2020.0,2221.0,12210481.0,
2004.0,1576.0,2024.0,2215.0,12210484.0,
2004.0,1573.0,2032.0,2207.0,12210488.0,
2004.0,1574.0,2038.0,2201.0,12210492.0,
2004.0,1575.0,2043.0,2198.0,12210495.0,
2005.0,1575.0,2048.0,2190.0,12210499.0,
2004.0,1575.0,2051.0,2182.0,12210503.0,
2004.0,1575.0,2053.0,2174.0,12210506.0,
2004.0,1575.0,2059.0,2164.0,12210510.0,
2004.0,1575.0,2059.0,2155.0,12210514.0,
2004.0,1576.0,2060.0,2146.0,12210517.0,
2003.0,1574.0,2062.0,2134.0,12210521.0,
2004.0,1576.0,2062.0,2126.0,12210524.0,
2004.0,1576.0,2064.0,2114.0,12210528.0,
2003.0,1575.0,2063.0,2109.0,12210532.0,
2004.0,1576.0,2064.0,2095.0,12210535.0,
2004.0,1578.0,2062.0,2082.0,12210539.0,
2004.0,1574.0,2059.0,2069.0,12210543.0,
2003.0,1576.0,2053.0,2055.0,12210546.0,
2004.0,1574.0,2054.0,2042.0,12210550.0,
2004.0,1575.0,2042.0,2029.0,12210554.0,
2003.0,1575.0,2037.0,2018.0,12210557.0,
2003.0,1575.0,2030.0,2005.0,12210561.0,
2004.0,1574.0,2021.0,1993.0,12210564.0,
2004.0,1574.0,2014.0,1981.0,12210568.0,
2003.0,1576.0,2006.0,1965.0,12210572.0,
2004.0,1575.0,1999.0,1956.0,12210575.0,
2004.0,1575.0,1991.0,1944.0,12210579.0,
2004.0,1575.0,1982.0,1930.0,12210583.0,
2003.0,1575.0,1971.0,1922.0,12210586.0,
2004.0,1576.0,1963.0,1908.0,12210590.0,
2004.0,1574.0,1953.0,1899.0,12210594.0,
2003.0,1577.0,1942.0,1893.0,12210597.0,
2004.0,1576.0,1934.0,1886.0,12210601.0,
2005.0,1575.0,1925.0,1878.0,12210604.0,
2004.0,1576.0,1916.0,1872.0,12210608.0,
2004.0,1576.0,1907.0,1864.0,12210612.0,
2004.0,1576.0,1899.0,1860.0,12210615.0,
2003.0,1576.0,1888.0,1854.0,12210619.0,
2003.0,1575.0,1882.0,1847.0,12210623.0,
2003.0,1576.0,1875.0,1842.0,12210626.0,
2004.0,1576.0,1864.0,1838.0,12210630.0,
2003.0,1575.0,1856.0,1836.0,12210634.0,
2003.0,1577.0,1848.0,1834.0,12210637.0,
2007.0,1576.0,1843.0,1830.0,12210641.0,
2004.0,1577.0,1836.0,1827.0,12210644.0,
2004.0,1577.0,1829.0,1823.0,12210648.0,
2003.0,1577.0,1825.0,1821.0,12210652.0,
2004.0,1577.0,1818.0,1818.0,12210655.0,
2004.0,1577.0,1811.0,1812.0,12210659.0,
2007.0,1577.0,1806.0,1811.0,12210663.0,
2004.0,1579.0,1799.0,1807.0,12210666.0,
2003.0,1577.0,1793.0,1804.0,12210670.0,
2000.0,1577.0,1788.0,1798.0,12210674.0,
2003.0,1579.0,1786.0,1787.0,12210677.0,
2000.0,1575.0,1779.0,1780.0,12210681.0,
2005.0,1577.0,1776.0,1772.0,12210684.0,
2004.0,1576.0,1777.0,1765.0,12210688.0,
2004.0,1575.0,1770.0,1756.0,12210692.0,
1998.0,1576.0,1768.0,1755.0,12210695.0,
2004.0,1576.0,1768.0,1752.0,12210699.0,
2004.0,1577.0,1767.0,1750.0,12210703.0,
2003.0,1577.0,1765.0,1744.0,12210706.0,
2004.0,1578.0,1767.0,1741.0,12210710.0,
2004.0,1576.0,1768.0,1738.0,12210713.0,
2003.0,1576.0,1767.0,1734.0,12210717.0,
2003.0,1578.0,1770.0,1728.0,12210721.0,
2004.0,1577.0,1775.0,1728.0,12210724.0,
2005.0,1576.0,1775.0,1715.0,12210728.0,
2004.0,1577.0,1776.0,1723.0,12210732.0,
2003.0,1576.0,1781.0,1718.0,12210735.0,
2004.0,1577.0,1782.0,1713.0,12210739.0,
2004.0,1577.0,1789.0,1708.0,12210743.0,
2004.0,1576.0,1793.0,1704.0,12210746.0,
2003.0,1577.0,1797.0,1698.0,12210750.0,
2004.0,1574.0,1804.0,1698.0,12210753.0,
2003.0,1576.0,1809.0,1693.0,12210757.0,
2003.0,1575.0,1811.0,1690.0,12210761.0,
2004.0,1576.0,1815.0,1686.0,12210764.0,
2004.0,1576.0,1818.0,1683.0,12210768.0,
2004.0,1580.0,1823.0,1680.0,12210772.0,
2003.0,1574.0,1826.0,1678.0,12210775.0,
2004.0,1575.0,1834.0,1673.0,12210779.0,
2003.0,1576.0,1836.0,1670.0,12210783.0,
2004.0,1576.0,1839.0,1673.0,12210786.0,
2004.0,1576.0,1841.0,1668.0,12210790.0,
2003.0,1575.0,1844.0,1670.0,12210793.0,
2003.0,1575.0,1845.0,1668.0,12210797.0,
2004.0,1574.0,1846.0,1668.0,12210801.0,
2003.0,1576.0,1848.0,1666.0,12210804.0,
2005.0,1576.0,1845.0,1662.0,12210808.0,
2004.0,1575.0,1844.0,1657.0,12210812.0,
2003.0,1576.0,1844.0,1655.0,12210815.0,
2003.0,1575.0,1841.0,1659.0,12210819.0,
2004.0,1576.0,1839.0,1654.0,12210823.0,
2004.0,1575.0,1838.0,1649.0,12210826.0,
2004.0,1576.0,1833.0,1648.0,12210830.0,
2004.0,1576.0,1830.0,1643.0,12210833.0,
2005.0,1575.0,1827.0,1642.0,12210837.0,
2003.0,1575.0,1826.0,1640.0,12210841.0,
2004.0,1577.0,1824.0,1641.0,12210844.0,
2004.0,1570.0,1825.0,1636.0,12210848.0,
2004.0,1576.0,1823.0,1636.0,12210852.0,
2004.0,1576.0,1822.0,1634.0,12210855.0,
2004.0,1577.0,1819.0,1633.0,12210859.0,
2004.0,1575.0,1820.0,1630.0,12210862.0,
2003.0,1576.0,1819.0,1629.0,12210866.0,
2004.0,1575.0,1813.0,1631.0,12210870.0,
2005.0,1577.0,1812.0,1633.0,12210873.0,
2004.0,1573.0,1810.0,1634.0,12210877.0,
2004.0,1575.0,1808.0,1634.0,12210881.0,
2004.0,1575.0,1806.0,1636.0,12210884.0,
2005.0,1575.0,1805.0,1636.0,12210888.0,
2005.0,1575.0,1802.0,1637.0,12210892.0,
2003.0,1578.0,1802.0,1637.0,12210895.0,
2003.0,1576.0,1797.0,1636.0,12210899.0,
2004.0,1574.0,1796.0,1634.0,12210902.0,
2004.0,1575.0,1796.0,1630.0,12210906.0,
2003.0,1574.0,1795.0,1629.0,12210910.0,
2004.0,1574.0,1793.0,1623.0,12210913.0,
2004.0,1574.0,1791.0,1623.0,12210917.0,
2005.0,1576.0,1790.0,1620.0,12210921.0,
2004.0,1575.0,1790.0,1620.0,12210924.0,
2003.0,1575.0,1788.0,1615.0,12210928.0,
2004.0,1577.0,1790.0,1611.0,12210932.0,
2004.0,1574.0,1791.0,1609.0,12210935.0,
2004.0,1575.0,1792.0,1602.0,12210939.0,
2003.0,1575.0,1790.0,1596.0,12210942.0,
2007.0,1575.0,1792.0,1592.0,12210946.0,
2004.0,1574.0,1792.0,1590.0,12210950.0,
2003.0,1573.0,1794.0,1585.0,12210953.0,
2004.0,1576.0,1793.0,1586.0,12210957.0,
1997.0,1575.0,1792.0,1573.0,12210961.0,
2003.0,1574.0,1793.0,1569.0,12210964.0,
2003.0,1574.0,1795.0,1562.0,12210968.0,
2004.0,1575.0,1798.0,1558.0,12210972.0,
2005.0,1573.0,1797.0,1552.0,12210975.0,
2004.0,1574.0,1799.0,1554.0,12210979.0,
2003.0,1574.0,1797.0,1550.0,12210982.0,
2004.0,1574.0,1800.0,1548.0,12210986.0,
2004.0,1575.0,1803.0,1549.0,12210990.0,
2003.0,1574.0,1803.0,1547.0,12210993.0,
2005.0,1575.0,1804.0,1548.0,12210997.0,
2004.0,1575.0,1806.0,1547.0,12211001.0,
2003.0,1577.0,1809.0,1550.0,12211004.0,
2004.0,1576.0,1808.0,1551.0,12211008.0,
2003.0,1575.0,1803.0,1558.0,12211012.0,
2004.0,1578.0,1804.0,1566.0,12211015.0,
2004.0,1575.0,1804.0,1576.0,12211019.0,
2004.0,1576.0,1806.0,1588.0,12211022.0,
2004.0,1576.0,1803.0,1601.0,12211026.0,
2001.0,1577.0,1804.0,1619.0,12211030.0,
2004.0,1581.0,1802.0,1634.0,12211033.0,
2004.0,1575.0,1803.0,1653.0,12211037.0,
2004.0,1576.0,1805.0,1677.0,12211041.0,
2004.0,1576.0,1804.0,1703.0,12211044.0,
2004.0,1576.0,1807.0,1732.0,12211048.0,
2006.0,1575.0,1811.0,1763.0,12211052.0,
2004.0,1576.0,1816.0,1799.0,12211055.0,
2004.0,1574.0,1824.0,1830.0,12211059.0,
2004.0,1576.0,1836.0,1880.0,12211062.0,
2004.0,1576.0,1852.0,1921.0,12211066.0,
2004.0,1576.0,1871.0,1962.0,12211070.0,
2005.0,1577.0,1892.0,2006.0,12211073.0,
2004.0,1577.0,1915.0,2054.0,12211077.0,
2005.0,1576.0,1942.0,2103.0,12211081.0,
2004.0,1575.0,1975.0,2154.0,12211084.0,
2004.0,1575.0,2013.0,2203.0,12211088.0,
2005.0,1576.0,2051.0,2253.0,12211091.0,
2004.0,1574.0,2093.0,2305.0,12211095.0,
2004.0,1576.0,2142.0,2357.0,12211099.0,
2004.0,1577.0,2187.0,2413.0,12211102.0,
2006.0,1576.0,2238.0,2464.0,12211106.0,
2004.0,1576.0,2289.0,2517.0,12211110.0,
2005.0,1576.0,2343.0,2564.0,12211113.0,
2005.0,1575.0,2394.0,2612.0,12211117.0,
2005.0,1574.0,2447.0,2658.0,12211121.0,
2005.0,1572.0,2496.0,2705.0,12211124.0,
2005.0,1575.0,2545.0,2747.0,12211128.0,
2005.0,1576.0,2591.0,2786.0,12211131.0,
2005.0,1575.0,2638.0,2823.0,12211135.0,
2005.0,1575.0,2679.0,2854.0,12211139.0,
2005.0,1576.0,2715.0,2880.0,12211142.0,
2005.0,1576.0,2750.0,2904.0,12211146.0,
2006.0,1576.0,2783.0,2923.0,12211150.0,
2005.0,1575.0,2807.0,2942.0,12211153.0,
2005.0,1576.0,2829.0,2954.0,12211157.0,
2005.0,1575.0,2844.0,2962.0,12211161.0,
2005.0,1576.0,2858.0,2968.0,12211164.0,
2006.0,1576.0,2863.0,2966.0,12211168.0,
2005.0,1577.0,2866.0,2970.0,12211171.0,
1998.0,1575.0,2862.0,2965.0,12211175.0,
2001.0,1575.0,2859.0,2966.0,12211179.0,
2006.0,1575.0,2848.0,2957.0,12211182.0,
2006.0,1574.0,2835.0,2943.0,12211186.0,
2007.0,1575.0,2820.0,2938.0,12211190.0,
2006.0,1576.0,2798.0,2931.0,12211193.0,
2006.0,1577.0,2777.0,2916.0,12211197.0,
2006.0,1577.0,2751.0,2904.0,12211201.0,
2006.0,1575.0,2724.0,2887.0,12211204.0,
2006.0,1577.0,2695.0,2875.0,12211208.0,
2006.0,1578.0,2664.0,2860.0,12211211.0,
2006.0,1578.0,2632.0,2848.0,12211215.0,
2006.0,1578.0,2600.0,2828.0,12211219.0,
2006.0,1576.0,2566.0,2812.0,12211222.0,
2007.0,1572.0,2534.0,2792.0,12211226.0,
2008.0,1579.0,2500.0,2775.0,12211230.0,
2007.0,1579.0,2467.0,2756.0,12211233.0,
2006.0,1579.0,2433.0,2740.0,12211237.0,
2006.0,1579.0,2404.0,2719.0,12211241.0,
2007.0,1578.0,2371.0,2703.0,12211244.0,
2005.0,1578.0,2341.0,2682.0,12211248.0,
2007.0,1578.0,2311.0,2662.0,12211251.0,
2007.0,1577.0,2283.0,2639.0,12211255.0,
2007.0,1578.0,2256.0,2621.0,12211259.0,
2006.0,1579.0,2232.0,2598.0,12211262.0,
2007.0,1578.0,2207.0,2576.0,12211266.0,
2006.0,1578.0,2182.0,2552.0,12211270.0,
2008.0,1580.0,2162.0,2529.0,12211273.0,
2007.0,1576.0,2143.0,2508.0,12211277.0,
2014.0,1578.0,2122.0,2479.0,12211280.0,
2006.0,1578.0,2103.0,2458.0,12211284.0,
2007.0,1578.0,2084.0,2432.0,12211288.0,
2007.0,1577.0,2067.0,2405.0,12211291.0,
2006.0,1576.0,2050.0,2381.0,12211295.0,
2006.0,1578.0,2033.0,2357.0,12211299.0,
2005.0,1578.0,2020.0,2335.0,12211302.0,
2007.0,1577.0,2003.0,2313.0,12211306.0,
2006.0,1578.0,1989.0,2290.0,12211310.0,
2006.0,1579.0,1973.0,2267.0,12211313.0,
2006.0,1577.0,1961.0,2251.0,12211317.0,
2006.0,1577.0,1948.0,2229.0,12211320.0,
2006.0,1577.0,1935.0,2214.0,12211324.0,
2007.0,1578.0,1929.0,2194.0,12211328.0,
2006.0,1578.0,1917.0,2175.0,12211331.0,
2007.0,1577.0,1908.0,2160.0,12211335.0,
2006.0,1577.0,1898.0,2143.0,12211339.0,
2007.0,1577.0,1889.0,2126.0,12211342.0,
2007.0,1578.0,1882.0,2115.0,12211346.0,
2012.0,1578.0,1875.0,2102.0,12211350.0,
2006.0,1578.0,1867.0,2092.0,12211353.0,
2006.0,1577.0,1865.0,2082.0,12211357.0,
2006.0,1577.0,1864.0,2073.0,12211360.0,
2006.0,1577.0,1860.0,2063.0,12211364.0,
2007.0,1573.0,1859.0,2055.0,12211368.0,
2006.0,1578.0,1861.0,2047.0,12211371.0,
2005.0,1578.0,1859.0,2042.0,12211375.0,
2006.0,1577.0,1862.0,2035.0,12211379.0,
2006.0,1576.0,1862.0,2028.0,12211382.0,
2006.0,1578.0,1865.0,2022.0,12211386.0,
2006.0,1577.0,1865.0,2013.0,12211390.0,
2006.0,1577.0,1865.0,2006.0,12211393.0,
2006.0,1576.0,1870.0,1999.0,12211397.0,
2006.0,1577.0,1874.0,1993.0,12211400.0,
2005.0,1577.0,1877.0,1988.0,12211404.0,
2007.0,1577.0,1878.0,1987.0,12211408.0,
2006.0,1577.0,1883.0,1985.0,12211411.0,
2006.0,1577.0,1887.0,1987.0,12211415.0,
2008.0,1576.0,1890.0,1982.0,12211419.0,
2006.0,1577.0,1898.0,1982.0,12211422.0,
2006.0,1577.0,1897.0,1980.0,12211426.0,
2006.0,1576.0,1899.0,1978.0,12211430.0,
2006.0,1577.0,1903.0,1973.0,12211433.0,
2006.0,1577.0,1903.0,1970.0,12211437.0,
2006.0,1576.0,1904.0,1967.0,12211440.0,
2006.0,1577.0,1906.0,1967.0,12211444.0,
2006.0,1577.0,1905.0,1960.0,12211448.0,
2006.0,1575.0,1907.0,1955.0,12211451.0,
2006.0,1577.0,1911.0,1949.0,12211455.0,
2007.0,1576.0,1908.0,1944.0,12211459.0,
2002.0,1576.0,1907.0,1934.0,12211462.0,
2006.0,1577.0,1912.0,1928.0,12211466.0,
2006.0,1577.0,1917.0,1920.0,12211470.0,
2006.0,1575.0,1911.0,1916.0,12211473.0,
2006.0,1575.0,1910.0,1907.0,12211477.0,
2007.0,1576.0,1908.0,1902.0,12211480.0,
2006.0,1576.0,1909.0,1895.0,12211484.0,
2005.0,1576.0,1906.0,1887.0,12211488.0,
2006.0,1576.0,1904.0,1879.0,12211491.0,
2007.0,1577.0,1901.0,1872.0,12211495.0,
2005.0,1572.0,1896.0,1867.0,12211499.0,
2006.0,1577.0,1895.0,1859.0,12211502.0,
2007.0,1576.0,1887.0,1854.0,12211506.0,
2005.0,1575.0,1881.0,1840.0,12211509.0,
2005.0,1576.0,1875.0,1835.0,12211513.0,
2006.0,1576.0,1869.0,1825.0,12211517.0,
2006.0,1577.0,1865.0,1815.0,12211520.0,
2007.0,1575.0,1858.0,1810.0,12211524.0,
2007.0,1577.0,1853.0,1797.0,12211528.0,
2006.0,1576.0,1845.0,1790.0,12211531.0,
2007.0,1575.0,1841.0,1783.0,12211535.0,
2007.0,1574.0,1835.0,1775.0,12211539.0,
2006.0,1575.0,1832.0,1765.0,12211542.0,
2006.0,1576.0,1827.0,1763.0,12211546.0,
2006.0,1575.0,1824.0,1753.0,12211549.0,
2006.0,1576.0,1823.0,1742.0,12211553.0,
2006.0,1576.0,1821.0,1735.0,12211557.0,
2006.0,1574.0,1820.0,1726.0,12211560.0,
2006.0,1577.0,1816.0,1721.0,12211564.0,
2006.0,1575.0,1816.0,1713.0,12211568.0,
2005.0,1576.0,1816.0,1710.0,12211571.0,
2006.0,1575.0,1816.0,1701.0,12211575.0,
2005.0,1575.0,1814.0,1696.0,12211579.0,
2005.0,1575.0,1815.0,1687.0,12211582.0,
2006.0,1576.0,1816.0,1684.0,12211586.0,
2006.0,1575.0,1815.0,1674.0,12211589.0,
2006.0,1577.0,1816.0,1667.0,12211593.0,
2006.0,1576.0,1816.0,1657.0,12211597.0,
2005.0,1575.0,1815.0,1651.0,12211600.0,
2006.0,1575.0,1810.0,1645.0,12211604.0,
2009.0,1576.0,1815.0,1642.0,12211608.0,
2006.0,1577.0,1816.0,1632.0,12211611.0,
2006.0,1574.0,1815.0,1633.0,12211615.0,
2005.0,1575.0,1818.0,1628.0,12211619.0,
2007.0,1574.0,1818.0,1623.0,12211622.0,
2006.0,1575.0,1816.0,1617.0,12211626.0,
2006.0,1576.0,1819.0,1618.0,12211629.0,
2007.0,1574.0,1819.0,1608.0,12211633.0,
2005.0,1575.0,1820.0,1606.0,12211637.0,
2007.0,1574.0,1817.0,1606.0,12211640.0,
2006.0,1575.0,1817.0,1602.0,12211644.0,
2006.0,1574.0,1815.0,1600.0,12211648.0,
2006.0,1575.0,1814.0,1595.0,12211651.0,
2006.0,1575.0,1811.0,1595.0,12211655.0,
2005.0,1575.0,1807.0,1591.0,12211659.0,
2005.0,1575.0,1802.0,1591.0,12211662.0,
2005.0,1574.0,1797.0,1594.0,12211666.0,
2006.0,1574.0,1791.0,1595.0,12211669.0,
2007.0,1573.0,1785.0,1591.0,12211673.0,
2006.0,1574.0,1780.0,1590.0,12211677.0,
2007.0,1574.0,1770.0,1586.0,12211680.0,
2005.0,1574.0,1764.0,1587.0,12211684.0,
2006.0,1573.0,1754.0,1583.0,12211688.0,
2005.0,1574.0,1743.0,1581.0,12211691.0,
2005.0,1573.0,1734.0,1582.0,12211695.0,
2005.0,1573.0,1727.0,1586.0,12211699.0,
2006.0,1576.0,1713.0,1582.0,12211702.0,
2007.0,1573.0,1702.0,1581.0,12211706.0,
2005.0,1574.0,1691.0,1576.0,12211709.0,
2005.0,1576.0,1679.0,1581.0,12211713.0,
2006.0,1572.0,1668.0,1578.0,12211717.0,
2005.0,1575.0,1654.0,1580.0,12211720.0,
2006.0,1573.0,1646.0,1581.0,12211724.0,
2000.0,1574.0,1634.0,1582.0,12211728.0,
2006.0,1575.0,1622.0,1580.0,12211731.0,
2006.0,1574.0,1610.0,1580.0,12211735.0,
2005.0,1575.0,1597.0,1579.0,12211738.0,
2005.0,1575.0,1583.0,1577.0,12211742.0,
2006.0,1578.0,1572.0,1575.0,12211746.0,
2002.0,1575.0,1556.0,1576.0,12211749.0,
2005.0,1575.0,1541.0,1576.0,12211753.0,
2005.0,1576.0,1528.0,1578.0,12211757.0,
2005.0,1576.0,1512.0,1578.0,12211760.0,
2004.0,1572.0,1500.0,1580.0,12211764.0,
2002.0,1578.0,1490.0,1581.0,12211768.0,
1999.0,1578.0,1478.0,1584.0,12211771.0,
1999.0,1577.0,1468.0,1585.0,12211775.0,
1997.0,1577.0,1459.0,1586.0,12211778.0,
1997.0,1577.0,1451.0,1590.0,12211782.0,
1995.0,1578.0,1442.0,1588.0,12211786.0,
1996.0,1578.0,1432.0,1592.0,12211789.0,
1996.0,1579.0,1427.0,1590.0,12211793.0,
1996.0,1579.0,1418.0,1592.0,12211797.0,
1997.0,1579.0,1415.0,1593.0,12211800.0,
1996.0,1580.0,1410.0,1597.0,12211804.0,
1997.0,1579.0,1404.0,1597.0,12211808.0,
1997.0,1585.0,1397.0,1599.0,12211811.0,
1996.0,1580.0,1398.0,1603.0,12211815.0,
1994.0,1580.0,1395.0,1606.0,12211818.0,
1993.0,1579.0,1394.0,1610.0,12211822.0,
1990.0,1580.0,1394.0,1612.0,12211826.0,
1990.0,1582.0,1396.0,1615.0,12211829.0,
1990.0,1581.0,1398.0,1621.0,12211833.0,
1990.0,1582.0,1406.0,1625.0,12211837.0,
1991.0,1582.0,1411.0,1630.0,12211840.0,
1990.0,1581.0,1416.0,1634.0,12211844.0,
1992.0,1582.0,1422.0,1641.0,12211848.0,
1992.0,1582.0,1432.0,1643.0,12211851.0,
1997.0,1582.0,1440.0,1646.0,12211855.0,
1993.0,1581.0,1451.0,1649.0,12211858.0,
1993.0,1583.0,1465.0,1652.0,12211862.0,
1993.0,1582.0,1477.0,1654.0,12211866.0,
1994.0,1580.0,1486.0,1657.0,12211869.0,
1995.0,1586.0,1500.0,1658.0,12211873.0,
1995.0,1582.0,1514.0,1661.0,12211877.0,
1994.0,1580.0,1525.0,1665.0,12211880.0,
1995.0,1580.0,1539.0,1671.0,12211884.0,
1996.0,1579.0,1552.0,1675.0,12211888.0,
1996.0,1580.0,1565.0,1679.0,12211891.0,
1996.0,1580.0,1578.0,1682.0,12211895.0,
1997.0,1579.0,1587.0,1689.0,12211898.0,
1998.0,1580.0,1599.0,1697.0,12211902.0,
1998.0,1579.0,1609.0,1702.0,12211906.0,
1998.0,1580.0,1622.0,1713.0,12211909.0,
1998.0,1579.0,1635.0,1721.0,12211913.0,
1998.0,1580.0,1645.0,1736.0,12211917.0,
1998.0,1580.0,1661.0,1745.0,12211920.0,
1999.0,1579.0,1665.0,1760.0,12211924.0,
2002.0,1578.0,1675.0,1775.0,12211927.0,
2000.0,1577.0,1685.0,1794.0,12211931.0,
1999.0,1579.0,1698.0,1816.0,12211935.0,
2001.0,1578.0,1705.0,1841.0,12211938.0,
2000.0,1579.0,1713.0,1869.0,12211942.0,
1999.0,1578.0,1721.0,1899.0,12211946.0,
2000.0,1580.0,1731.0,1930.0,12211949.0,
2000.0,1574.0,1739.0,1968.0,12211953.0,
2000.0,1578.0,1749.0,2011.0,12211957.0,
2001.0,1579.0,1759.0,2056.0,12211960.0,
2000.0,1579.0,1768.0,2101.0,12211964.0,
1999.0,1578.0,1780.0,2150.0,12211967.0,
2001.0,1580.0,1791.0,2199.0,12211971.0,
2000.0,1579.0,1804.0,2252.0,12211975.0,
2000.0,1576.0,1816.0,2307.0,12211978.0,
1999.0,1579.0,1829.0,2362.0,12211982.0,
1999.0,1579.0,1843.0,2422.0,12211986.0,
2000.0,1581.0,1861.0,2477.0,12211989.0,
1995.0,1579.0,1877.0,2534.0,12211993.0,
2000.0,1580.0,1901.0,2593.0,12211997.0,
1999.0,1577.0,1921.0,2644.0,12212000.0,
1999.0,1580.0,1943.0,2698.0,12212004.0,
2000.0,1579.0,1965.0,2746.0,12212007.0,
2000.0,1580.0,1988.0,2792.0,12212011.0,
2000.0,1580.0,2015.0,2834.0,12212015.0,
2000.0,1578.0,2036.0,2878.0,12212018.0,
1999.0,1579.0,2057.0,2912.0,12212022.0,
2000.0,1578.0,2083.0,2948.0,12212026.0,
2000.0,1580.0,2107.0,2977.0,12212029.0,
2000.0,1580.0,2129.0,3001.0,12212033.0,
2000.0,1579.0,2151.0,3029.0,12212037.0,
2001.0,1580.0,2170.0,3052.0,12212040.0,
2001.0,1579.0,2188.0,3065.0,12212044.0,
2000.0,1579.0,2204.0,3080.0,12212047.0,
2000.0,1577.0,2219.0,3090.0,12212051.0,
2000.0,1578.0,2227.0,3096.0,12212055.0,
2001.0,1579.0,2236.0,3098.0,12212058.0,
2000.0,1579.0,2242.0,3098.0,12212062.0,
2000.0,1579.0,2245.0,3093.0,12212066.0,
2001.0,1579.0,2249.0,3084.0,12212069.0,
2001.0,1578.0,2251.0,3070.0,12212073.0,
2001.0,1578.0,2245.0,3061.0,12212077.0,
2001.0,1579.0,2243.0,3042.0,12212080.0,
2001.0,1578.0,2237.0,3025.0,12212084.0,
2001.0,1577.0,2229.0,3006.0,12212087.0,
2002.0,1578.0,2223.0,2987.0,12212091.0,
2001.0,1579.0,2210.0,2967.0,12212095.0,
2002.0,1576.0,2199.0,2947.0,12212098.0,
2002.0,1578.0,2188.0,2924.0,12212102.0,
2002.0,1577.0,2177.0,2903.0,12212106.0,
2003.0,1577.0,2167.0,2882.0,12212109.0,
2003.0,1576.0,2150.0,2860.0,12212113.0,
2003.0,1577.0,2139.0,2838.0,12212117.0,
2007.0,1576.0,2126.0,2816.0,12212120.0,
2004.0,1577.0,2117.0,2793.0,12212124.0,
2003.0,1575.0,2099.0,2770.0,12212127.0,
2003.0,1576.0,2090.0,2744.0,12212131.0,
2003.0,1573.0,2079.0,2722.0,12212135.0,
2002.0,1576.0,2070.0,2699.0,12212138.0,
2002.0,1578.0,2057.0,2676.0,12212142.0,
2003.0,1575.0,2045.0,2648.0,12212146.0,
2002.0,1575.0,2037.0,2625.0,12212149.0,
2003.0,1576.0,2031.0,2602.0,12212153.0,
2004.0,1575.0,2025.0,2574.0,12212156.0,
2004.0,1575.0,2018.0,2546.0,12212160.0,
2003.0,1574.0,2015.0,2519.0,12212164.0,
2002.0,1574.0,2010.0,2493.0,12212167.0,
2003.0,1576.0,2007.0,2465.0,12212171.0,
2004.0,1575.0,2006.0,2444.0,12212175.0,
2003.0,1575.0,2003.0,2417.0,12212178.0,
2005.0,1577.0,1998.0,2395.0,12212182.0,
2005.0,1578.0,1996.0,2369.0,12212186.0,
2004.0,1575.0,1992.0,2346.0,12212189.0,
2004.0,1575.0,1990.0,2320.0,12212193.0,
2005.0,1577.0,1988.0,2304.0,12212196.0,
2004.0,1576.0,1982.0,2282.0,12212200.0,
2004.0,1577.0,1985.0,2261.0,12212204.0,
2005.0,1576.0,1977.0,2244.0,12212207.0,
2004.0,1577.0,1977.0,2222.0,12212211.0,
2005.0,1577.0,1975.0,2201.0,12212215.0,
2004.0,1579.0,1975.0,2182.0,12212218.0,
2006.0,1578.0,1971.0,2163.0,12212222.0,
2003.0,1579.0,1969.0,2147.0,12212226.0,
2005.0,1580.0,1969.0,2130.0,12212229.0,
2005.0,1580.0,1964.0,2115.0,12212233.0,
2007.0,1578.0,1961.0,2101.0,12212236.0,
2007.0,1577.0,1961.0,2085.0,12212240.0,
2004.0,1580.0,1959.0,2073.0,12212244.0,
2005.0,1580.0,1958.0,2061.0,12212247.0,
2005.0,1580.0,1957.0,2048.0,12212251.0,
2005.0,1580.0,1957.0,2038.0,12212255.0,
2005.0,1581.0,1954.0,2026.0,12212258.0,
2005.0,1580.0,1950.0,2019.0,12212262.0,
2005.0,1581.0,1949.0,2008.0,12212266.0,
2005.0,1583.0,1947.0,1999.0,12212269.0,
2006.0,1583.0,1944.0,1987.0,12212273.0,
2006.0,1582.0,1944.0,1975.0,12212276.0,
2005.0,1584.0,1941.0,1964.0,12212280.0,
2001.0,1581.0,1938.0,1960.0,12212284.0,
2006.0,1582.0,1938.0,1945.0,12212287.0,
2005.0,1576.0,1935.0,1940.0,12212291.0,
2006.0,1583.0,1932.0,1930.0,12212295.0,
2006.0,1582.0,1927.0,1922.0,12212298.0,
2004.0,1582.0,1926.0,1909.0,12212302.0,
2005.0,1583.0,1925.0,1897.0,12212306.0,
2005.0,1585.0,1922.0,1884.0,12212309.0,
2006.0,1584.0,1922.0,1873.0,12212313.0,
2006.0,1584.0,1919.0,1857.0,12212316.0,
2006.0,1584.0,1915.0,1847.0,12212320.0,
2006.0,1587.0,1914.0,1836.0,12212324.0,
2006.0,1584.0,1913.0,1828.0,12212327.0,
2006.0,1586.0,1912.0,1818.0,12212331.0,
2006.0,1584.0,1909.0,1814.0,12212335.0,
2006.0,1586.0,1906.0,1809.0,12212338.0,
2006.0,1585.0,1902.0,1802.0,12212342.0,
2005.0,1585.0,1900.0,1795.0,12212345.0,
2006.0,1584.0,1897.0,1790.0,12212349.0,
2006.0,1585.0,1894.0,1782.0,12212353.0,
2006.0,1586.0,1888.0,1777.0,12212356.0,
2006.0,1585.0,1882.0,1773.0,12212360.0,
2003.0,1587.0,1879.0,1766.0,12212364.0,
2006.0,1587.0,1875.0,1763.0,12212367.0,
2006.0,1587.0,1873.0,1760.0,12212371.0,
2006.0,1586.0,1868.0,1757.0,12212375.0,
2007.0,1587.0,1862.0,1750.0,12212378.0,
2006.0,1588.0,1858.0,1746.0,12212382.0,
2005.0,1586.0,1857.0,1743.0,12212385.0,
2006.0,1586.0,1852.0,1741.0,12212389.0,
2006.0,1588.0,1847.0,1737.0,12212393.0,
2006.0,1587.0,1844.0,1735.0,12212396.0,
2006.0,1589.0,1840.0,1729.0,12212400.0,
2006.0,1590.0,1835.0,1725.0,12212404.0,
2006.0,1589.0,1832.0,1721.0,12212407.0,
2005.0,1589.0,1828.0,1717.0,12212411.0,
2006.0,1589.0,1826.0,1713.0,12212415.0,
2006.0,1589.0,1823.0,1709.0,12212418.0,
2005.0,1588.0,1821.0,1707.0,12212422.0,
2006.0,1589.0,1819.0,1701.0,12212425.0,
2007.0,1591.0,1818.0,1698.0,12212429.0,
2006.0,1590.0,1816.0,1692.0,12212433.0,
2006.0,1590.0,1812.0,1691.0,12212436.0,
2005.0,1590.0,1814.0,1685.0,12212440.0,
2007.0,1591.0,1814.0,1681.0,12212444.0,
2004.0,1593.0,1814.0,1675.0,12212447.0,
2006.0,1593.0,1809.0,1670.0,12212451.0,
2006.0,1593.0,1812.0,1666.0,12212455.0,
2006.0,1593.0,1813.0,1661.0,12212458.0,
2006.0,1594.0,1810.0,1658.0,12212462.0,
2006.0,1594.0,1809.0,1656.0,12212465.0,
2006.0,1595.0,1809.0,1654.0,12212469.0,
2007.0,1593.0,1814.0,1655.0,12212473.0,
2006.0,1595.0,1816.0,1659.0,12212476.0,
2006.0,1594.0,1817.0,1662.0,12212480.0,
2006.0,1595.0,1818.0,1661.0,12212484.0,
2007.0,1594.0,1823.0,1664.0,12212487.0,
2006.0,1595.0,1825.0,1664.0,12212491.0,
2006.0,1594.0,1828.0,1665.0,12212495.0,
2007.0,1595.0,1829.0,1663.0,12212498.0,
2006.0,1596.0,1831.0,1659.0,12212502.0,
2007.0,1596.0,1835.0,1664.0,12212505.0,
2009.0,1597.0,1837.0,1665.0,12212509.0,
2006.0,1597.0,1841.0,1665.0,12212513.0,
2006.0,1596.0,1842.0,1665.0,12212516.0,
2006.0,1597.0,1847.0,1664.0,12212520.0,
2012.0,1597.0,1850.0,1664.0,12212524.0,
2005.0,1598.0,1852.0,1665.0,12212527.0,
2006.0,1598.0,1856.0,1667.0,12212531.0,
2006.0,1598.0,1859.0,1668.0,12212535.0,
2011.0,1598.0,1864.0,1669.0,12212538.0,
2006.0,1600.0,1868.0,1670.0,12212542.0,
2006.0,1599.0,1869.0,1673.0,12212545.0,
2006.0,1598.0,1875.0,1672.0,12212549.0,
2007.0,1598.0,1880.0,1671.0,12212553.0,
2007.0,1598.0,1884.0,1669.0,12212556.0,
2006.0,1600.0,1887.0,1665.0,12212560.0,
2006.0,1600.0,1891.0,1661.0,12212564.0,
2006.0,1600.0,1892.0,1660.0,12212567.0,
2007.0,1599.0,1897.0,1654.0,12212571.0,
2011.0,1599.0,1902.0,1654.0,12212574.0,
2006.0,1600.0,1904.0,1654.0,12212578.0,
2007.0,1599.0,1906.0,1652.0,12212582.0,
2006.0,1600.0,1908.0,1655.0,12212585.0,
2007.0,1600.0,1909.0,1648.0,12212589.0,
2007.0,1601.0,1912.0,1651.0,12212593.0,
2006.0,1600.0,1910.0,1650.0,12212596.0,
2007.0,1600.0,1910.0,1651.0,12212600.0,
2006.0,1600.0,1911.0,1646.0,12212604.0,
2006.0,1599.0,1911.0,1652.0,12212607.0,
2007.0,1600.0,1913.0,1648.0,12212611.0,
2006.0,1599.0,1909.0,1647.0,12212614.0,
2006.0,1600.0,1910.0,1644.0,12212618.0,
2008.0,1601.0,1909.0,1642.0,12212622.0,
2007.0,1599.0,1909.0,1642.0,12212625.0,
2007.0,1600.0,1907.0,1643.0,12212629.0,
2008.0,1599.0,1906.0,1643.0,12212633.0,
2006.0,1601.0,1908.0,1644.0,12212636.0,
2007.0,1597.0,1909.0,1641.0,12212640.0,
2007.0,1600.0,1908.0,1643.0,12212644.0,
2007.0,1601.0,1906.0,1640.0,12212647.0,
2007.0,1601.0,1907.0,1642.0,12212651.0,
2007.0,1599.0,1905.0,1641.0,12212654.0,
2008.0,1599.0,1903.0,1643.0,12212658.0,
2008.0,1600.0,1900.0,1642.0,12212662.0,
2006.0,1601.0,1901.0,1641.0,12212665.0,
2007.0,1599.0,1900.0,1637.0,12212669.0,
2007.0,1600.0,1900.0,1635.0,12212673.0,
2007.0,1600.0,1900.0,1634.0,12212676.0,
2007.0,1601.0,1901.0,1631.0,12212680.0,
2003.0,1601.0,1899.0,1625.0,12212684.0,
2008.0,1600.0,1898.0,1622.0,12212687.0,
2007.0,1598.0,1898.0,1617.0,12212691.0,
2007.0,1599.0,1900.0,1615.0,12212694.0,
2008.0,1598.0,1896.0,1612.0,12212698.0,
2007.0,1598.0,1896.0,1608.0,12212702.0,
2007.0,1598.0,1898.0,1604.0,12212705.0,
2007.0,1597.0,1895.0,1603.0,12212709.0,
2006.0,1598.0,1896.0,1601.0,12212713.0,
2008.0,1595.0,1897.0,1601.0,12212716.0,
2007.0,1599.0,1898.0,1599.0,12212720.0,
2008.0,1598.0,1898.0,1597.0,12212724.0,
2007.0,1598.0,1899.0,1595.0,12212727.0,
2007.0,1598.0,1903.0,1593.0,12212731.0,
2007.0,1600.0,1905.0,1590.0,12212734.0,
2012.0,1598.0,1905.0,1588.0,12212738.0,
2008.0,1597.0,1909.0,1584.0,12212742.0,
2008.0,1597.0,1912.0,1590.0,12212745.0,
2007.0,1597.0,1915.0,1590.0,12212749.0,
2007.0,1598.0,1914.0,1594.0,12212753.0,
2008.0,1596.0,1916.0,1600.0,12212756.0,
2007.0,1597.0,1914.0,1609.0,12212760.0,
2008.0,1598.0,1914.0,1617.0,12212763.0,
2008.0,1598.0,1916.0,1628.0,12212767.0,
2007.0,1599.0,1915.0,1640.0,12212771.0,
2007.0,1601.0,1915.0,1652.0,12212774.0,
2008.0,1598.0,1914.0,1670.0,12212778.0,
2007.0,1599.0,1915.0,1686.0,12212782.0,
2008.0,1599.0,1917.0,1705.0,12212785.0,
2007.0,1599.0,1915.0,1725.0,12212789.0,
2007.0,1599.0,1918.0,1747.0,12212793.0,
2009.0,1598.0,1917.0,1769.0,12212796.0,
2007.0,1599.0,1923.0,1795.0,12212800.0,
2008.0,1599.0,1926.0,1822.0,12212803.0,
2008.0,1599.0,1929.0,1855.0,12212807.0,
2007.0,1600.0,1934.0,1887.0,12212811.0,
2007.0,1599.0,1938.0,1923.0,12212814.0,
2008.0,1601.0,1942.0,1960.0,12212818.0,
2008.0,1600.0,1952.0,2002.0,12212822.0,
2007.0,1600.0,1959.0,2044.0,12212825.0,
2008.0,1601.0,1968.0,2084.0,12212829.0,
2009.0,1600.0,1975.0,2125.0,12212833.0,
2007.0,1600.0,1985.0,2168.0,12212836.0,
2007.0,1601.0,1999.0,2212.0,12212840.0,
2007.0,1602.0,2011.0,2250.0,12212843.0,
2008.0,1601.0,2022.0,2293.0,12212847.0,
2007.0,1600.0,2037.0,2330.0,12212851.0,
2013.0,1599.0,2051.0,2369.0,12212854.0,
2007.0,1600.0,2069.0,2404.0,12212858.0,
2008.0,1600.0,2085.0,2440.0,12212862.0,
2008.0,1600.0,2103.0,2470.0,12212865.0,
2008.0,1598.0,2120.0,2499.0,12212869.0,
2008.0,1601.0,2139.0,2526.0,12212873.0,
2009.0,1601.0,2158.0,2551.0,12212876.0,
2008.0,1600.0,2174.0,2570.0,12212880.0,
2007.0,1601.0,2192.0,2593.0,12212883.0,
2009.0,1600.0,2209.0,2611.0,12212887.0,
2009.0,1600.0,2229.0,2626.0,12212891.0,
2008.0,1599.0,2244.0,2642.0,12212894.0,
2008.0,1600.0,2258.0,2653.0,12212898.0,
2007.0,1598.0,2272.0,2664.0,12212902.0,
2008.0,1600.0,2285.0,2667.0,12212905.0,
2009.0,1599.0,2294.0,2673.0,12212909.0,
2008.0,1600.0,2307.0,2674.0,12212913.0,
2009.0,1599.0,2313.0,2677.0,12212916.0,
2009.0,1600.0,2318.0,2679.0,12212920.0,
2007.0,1599.0,2324.0,2676.0,12212923.0,
2008.0,1599.0,2327.0,2673.0,12212927.0,
2008.0,1598.0,2326.0,2668.0,12212931.0,
2010.0,1599.0,2324.0,2661.0,12212934.0,
2009.0,1599.0,2325.0,2655.0,12212938.0,
2009.0,1598.0,2324.0,2645.0,12212942.0,
2008.0,1602.0,2313.0,2635.0,12212945.0,
2010.0,1599.0,2305.0,2618.0,12212949.0,
2009.0,1600.0,2300.0,2607.0,12212953.0,
2009.0,1599.0,2289.0,2591.0,12212956.0,
2008.0,1599.0,2277.0,2582.0,12212960.0,
2010.0,1598.0,2264.0,2565.0,12212963.0,
2009.0,1598.0,2253.0,2551.0,12212967.0,
2009.0,1599.0,2237.0,2536.0,12212971.0,
2010.0,1598.0,2226.0,2520.0,12212974.0,
2001.0,1599.0,2212.0,2506.0,12212978.0,
2005.0,1599.0,2197.0,2489.0,12212982.0,
2009.0,1598.0,2182.0,2471.0,12212985.0,
2009.0,1598.0,2169.0,2453.0,12212989.0,
2008.0,1600.0,2152.0,2433.0,12212992.0,
2009.0,1600.0,2141.0,2414.0,12212996.0,
2009.0,1599.0,2124.0,2396.0,12213000.0,
2009.0,1599.0,2107.0,2374.0,12213003.0,
2009.0,1601.0,2097.0,2358.0,12213007.0,
2009.0,1599.0,2080.0,2338.0,12213011.0,
2009.0,1599.0,2068.0,2319.0,12213014.0,
2009.0,1600.0,2057.0,2300.0,12213018.0,
2009.0,1598.0,2040.0,2281.0,12213022.0,
2009.0,1599.0,2027.0,2262.0,12213025.0,
2009.0,1601.0,2012.0,2247.0,12213029.0,
2009.0,1599.0,2006.0,2230.0,12213032.0,
2009.0,1602.0,1991.0,2215.0,12213036.0,
2009.0,1601.0,1982.0,2199.0,12213040.0,
2010.0,1600.0,1971.0,2187.0,12213043.0,
2008.0,1599.0,1963.0,2173.0,12213047.0,
2008.0,1601.0,1953.0,2162.0,12213051.0,
2008.0,1600.0,1947.0,2139.0,12213054.0,
2007.0,1601.0,1941.0,2135.0,12213058.0,
2009.0,1600.0,1938.0,2118.0,12213062.0,
2008.0,1601.0,1932.0,2112.0,12213065.0,
2009.0,1600.0,1928.0,2101.0,12213069.0,
2008.0,1600.0,1925.0,2094.0,12213072.0,
2008.0,1600.0,1921.0,2092.0,12213076.0,
2009.0,1601.0,1918.0,2091.0,12213080.0,
2009.0,1599.0,1918.0,2085.0,12213083.0,
2009.0,1600.0,1915.0,2084.0,12213087.0,
2008.0,1600.0,1917.0,2080.0,12213091.0,
2008.0,1600.0,1920.0,2081.0,12213094.0,
2008.0,1601.0,1921.0,2078.0,12213098.0,
2008.0,1605.0,1920.0,2077.0,12213102.0,
2010.0,1599.0,1933.0,2074.0,12213105.0,
2008.0,1600.0,1931.0,2077.0,12213109.0,
2008.0,1599.0,1932.0,2075.0,12213112.0,
2008.0,1598.0,1938.0,2078.0,12213116.0,
2008.0,1599.0,1943.0,2081.0,12213120.0,
2008.0,1598.0,1951.0,2085.0,12213123.0,
2009.0,1598.0,1956.0,2088.0,12213127.0,
2009.0,1600.0,1964.0,2095.0,12213131.0,
2010.0,1598.0,1971.0,2098.0,12213134.0,
2008.0,1595.0,1978.0,2103.0,12213138.0,
2010.0,1597.0,1985.0,2105.0,12213142.0,
2009.0,1598.0,1994.0,2106.0,12213145.0,
2009.0,1594.0,2003.0,2109.0,12213149.0,
2009.0,1597.0,2013.0,2108.0,12213152.0,
2009.0,1596.0,2023.0,2111.0,12213156.0,
2008.0,1598.0,2031.0,2110.0,12213160.0,
2009.0,1594.0,2041.0,2106.0,12213163.0,
2009.0,1597.0,2049.0,2104.0,12213167.0,
2008.0,1595.0,2060.0,2101.0,12213171.0,
2009.0,1595.0,2066.0,2096.0,12213174.0,
2005.0,1595.0,2073.0,2093.0,12213178.0,
2008.0,1596.0,2077.0,2088.0,12213181.0,
2008.0,1595.0,2084.0,2081.0,12213185.0,
2005.0,1595.0,2091.0,2078.0,12213189.0,
2009.0,1594.0,2099.0,2066.0,12213192.0,
2009.0,1594.0,2101.0,2057.0,12213196.0,
2009.0,1594.0,2105.0,2043.0,12213200.0,
2008.0,1594.0,2109.0,2036.0,12213203.0,
2011.0,1595.0,2110.0,2024.0,12213207.0,
2009.0,1594.0,2112.0,2013.0,12213211.0,
2008.0,1594.0,2113.0,2001.0,12213214.0,
2009.0,1593.0,2111.0,1991.0,12213218.0,
2009.0,1594.0,2109.0,1976.0,12213221.0,
2008.0,1593.0,2108.0,1964.0,12213225.0,
2009.0,1594.0,2106.0,1951.0,12213229.0,
2008.0,1593.0,2100.0,1943.0,12213232.0,
2008.0,1593.0,2101.0,1932.0,12213236.0,
2008.0,1596.0,2096.0,1926.0,12213240.0,
2009.0,1592.0,2099.0,1919.0,12213243.0,
2009.0,1593.0,2090.0,1913.0,12213247.0,
2008.0,1593.0,2086.0,1905.0,12213251.0,
2009.0,1592.0,2083.0,1901.0,12213254.0,
2008.0,1594.0,2076.0,1892.0,12213258.0,
2009.0,1596.0,2073.0,1885.0,12213261.0,
2008.0,1591.0,2065.0,1879.0,12213265.0,
2008.0,1591.0,2061.0,1869.0,12213269.0,
2010.0,1592.0,2057.0,1860.0,12213272.0,
2009.0,1593.0,2053.0,1852.0,12213276.0,
2008.0,1591.0,2047.0,1845.0,12213280.0,
2009.0,1592.0,2043.0,1834.0,12213283.0,
2009.0,1592.0,2037.0,1832.0,12213287.0,
2008.0,1586.0,2033.0,1825.0,12213291.0,
2009.0,1592.0,2026.0,1821.0,12213294.0,
2008.0,1592.0,2027.0,1815.0,12213298.0,
2009.0,1591.0,2020.0,1806.0,12213301.0,
2008.0,1590.0,2019.0,1798.0,12213305.0,
2009.0,1590.0,2018.0,1792.0,12213309.0,
2008.0,1591.0,2012.0,1782.0,12213312.0,
2008.0,1592.0,2011.0,1778.0,12213316.0,
2009.0,1592.0,2007.0,1773.0,12213320.0,
2008.0,1590.0,2003.0,1767.0,12213323.0,
2008.0,1590.0,2003.0,1762.0,12213327.0,
2008.0,1592.0,1999.0,1760.0,12213331.0,
2008.0,1592.0,1996.0,1757.0,12213334.0,
2008.0,1592.0,1994.0,1754.0,12213338.0,
2008.0,1590.0,1991.0,1754.0,12213341.0,
2008.0,1586.0,1987.0,1754.0,12213345.0,
2004.0,1590.0,1989.0,1749.0,12213349.0,
2008.0,1591.0,1988.0,1750.0,12213352.0,
2009.0,1590.0,1993.0,1745.0,12213356.0,
2009.0,1591.0,1989.0,1748.0,12213360.0,
2008.0,1589.0,1986.0,1742.0,12213363.0,
2008.0,1591.0,1987.0,1744.0,12213367.0,
2009.0,1591.0,1989.0,1743.0,12213371.0,
2008.0,1591.0,1991.0,1746.0,12213374.0,
2009.0,1591.0,1993.0,1747.0,12213378.0,
2009.0,1592.0,1994.0,1747.0,12213381.0,
2008.0,1592.0,1995.0,1746.0,12213385.0,
2008.0,1591.0,1993.0,1747.0,12213389.0,
2008.0,1591.0,1993.0,1745.0,12213392.0,
2008.0,1589.0,1995.0,1744.0,12213396.0,
2008.0,1589.0,1998.0,1745.0,12213400.0,
2009.0,1590.0,1999.0,1740.0,12213403.0,
2010.0,1590.0,2003.0,1740.0,12213407.0,
2009.0,1591.0,2002.0,1736.0,12213410.0,
2009.0,1590.0,2000.0,1732.0,12213414.0,
2004.0,1591.0,2003.0,1734.0,12213418.0,
2008.0,1592.0,2004.0,1729.0,12213421.0,
2012.0,1589.0,2001.0,1725.0,12213425.0,
2009.0,1589.0,2000.0,1725.0,12213429.0,
2009.0,1590.0,2000.0,1725.0,12213432.0,
2008.0,1589.0,1999.0,1719.0,12213436.0,
2009.0,1589.0,1997.0,1719.0,12213440.0,
2008.0,1592.0,1999.0,1714.0,12213443.0,
2008.0,1590.0,1999.0,1716.0,12213447.0,
2009.0,1589.0,1993.0,1714.0,12213450.0,
2009.0,1589.0,1994.0,1714.0,12213454.0,
2009.0,1590.0,1993.0,1716.0,12213458.0,
2008.0,1589.0,1992.0,1715.0,12213461.0,
2008.0,1589.0,1991.0,1716.0,12213465.0,
2009.0,1589.0,1994.0,1716.0,12213469.0,
2008.0,1587.0,1994.0,1712.0,12213472.0,
2009.0,1589.0,1994.0,1713.0,12213476.0,
2009.0,1593.0,1995.0,1714.0,12213480.0,
2008.0,1587.0,1995.0,1711.0,12213483.0,
2009.0,1588.0,1994.0,1713.0,12213487.0,
2010.0,1589.0,1997.0,1708.0,12213490.0,
2009.0,1588.0,1997.0,1706.0,12213494.0,
2009.0,1588.0,1998.0,1705.0,12213498.0,
2011.0,1589.0,1998.0,1704.0,12213501.0,
2009.0,1588.0,1996.0,1703.0,12213505.0,
2010.0,1587.0,1998.0,1703.0,12213509.0,
2008.0,1593.0,1997.0,1699.0,12213512.0,
2008.0,1588.0,1997.0,1696.0,12213516.0,
2008.0,1586.0,1995.0,1703.0,12213520.0,
2008.0,1588.0,1998.0,1691.0,12213523.0,
2009.0,1590.0,1998.0,1692.0,12213527.0,
2008.0,1588.0,1995.0,1691.0,12213530.0,
2009.0,1588.0,1995.0,1689.0,12213534.0,
2009.0,1588.0,1992.0,1696.0,12213538.0,
2009.0,1587.0,1995.0,1699.0,12213541.0,
2008.0,1588.0,1993.0,1708.0,12213545.0,
2008.0,1587.0,1992.0,1716.0,12213549.0,
2009.0,1587.0,1992.0,1729.0,12213552.0,
2009.0,1587.0,1987.0,1743.0,12213556.0,
2009.0,1587.0,1993.0,1761.0,12213560.0,
2007.0,1588.0,1996.0,1780.0,12213563.0,
2009.0,1587.0,1995.0,1805.0,12213567.0,
2009.0,1586.0,1997.0,1829.0,12213570.0,
2009.0,1587.0,2002.0,1859.0,12213574.0,
2009.0,1588.0,2009.0,1889.0,12213578.0,
2008.0,1587.0,2014.0,1923.0,12213581.0,
2009.0,1589.0,2024.0,1957.0,12213585.0,
2009.0,1588.0,2032.0,1995.0,12213589.0,
2009.0,1589.0,2046.0,2034.0,12213592.0,
2009.0,1588.0,2061.0,2079.0,12213596.0,
2010.0,1587.0,2076.0,2122.0,12213599.0,
2009.0,1585.0,2094.0,2167.0,12213603.0,
2010.0,1589.0,2116.0,2210.0,12213607.0,
2009.0,1588.0,2134.0,2258.0,12213610.0,
2010.0,1589.0,2157.0,2302.0,12213614.0,
2009.0,1587.0,2183.0,2352.0,12213618.0,
2009.0,1588.0,2208.0,2400.0,12213621.0,
2009.0,1587.0,2237.0,2450.0,12213625.0,
2010.0,1588.0,2272.0,2492.0,12213629.0,
2010.0,1588.0,2298.0,2538.0,12213632.0,
2009.0,1588.0,2330.0,2580.0,12213636.0,
2010.0,1587.0,2361.0,2624.0,12213639.0,
2009.0,1587.0,2391.0,2659.0,12213643.0,
2005.0,1587.0,2423.0,2696.0,12213647.0,
2009.0,1589.0,2456.0,2729.0,12213650.0,
2010.0,1588.0,2485.0,2762.0,12213654.0,
2011.0,1586.0,2514.0,2786.0,12213658.0,
2010.0,1587.0,2543.0,2814.0,12213661.0,
2009.0,1587.0,2567.0,2830.0,12213665.0,
2009.0,1589.0,2592.0,2843.0,12213669.0,
2010.0,1592.0,2616.0,2862.0,12213672.0,
2010.0,1587.0,2635.0,2874.0,12213676.0,
2010.0,1587.0,2652.0,2881.0,12213679.0,
2009.0,1586.0,2668.0,2885.0,12213683.0,
2010.0,1588.0,2681.0,2891.0,12213687.0,
2009.0,1587.0,2688.0,2898.0,12213690.0,
2009.0,1586.0,2695.0,2897.0,12213694.0,
2010.0,1586.0,2701.0,2896.0,12213698.0,
2010.0,1587.0,2698.0,2894.0,12213701.0,
2010.0,1587.0,2701.0,2889.0,12213705.0,
2010.0,1584.0,2695.0,2883.0,12213709.0,
2010.0,1586.0,2687.0,2873.0,12213712.0,
2011.0,1587.0,2680.0,2865.0,12213716.0,
2011.0,1585.0,2667.0,2850.0,12213719.0,
2011.0,1587.0,2654.0,2836.0,12213723.0,
2010.0,1585.0,2637.0,2826.0,12213727.0,
2012.0,1585.0,2621.0,2812.0,12213730.0,
2011.0,1586.0,2602.0,2795.0,12213734.0,
2011.0,1585.0,2583.0,2782.0,12213738.0,
2011.0,1583.0,2563.0,2763.0,12213741.0,
2011.0,1585.0,2542.0,2749.0,12213745.0,
2010.0,1585.0,2521.0,2740.0,12213749.0,
2011.0,1583.0,2500.0,2715.0,12213752.0,
2010.0,1585.0,2478.0,2695.0,12213756.0,
2010.0,1586.0,2453.0,2672.0,12213759.0,
2011.0,1585.0,2425.0,2651.0,12213763.0,
2010.0,1581.0,2408.0,2629.0,12213767.0,
2010.0,1584.0,2390.0,2607.0,12213770.0,
2011.0,1585.0,2368.0,2581.0,12213774.0,
2010.0,1584.0,2347.0,2558.0,12213778.0,
2012.0,1583.0,2330.0,2537.0,12213781.0,
2015.0,1585.0,2312.0,2517.0,12213785.0,
2011.0,1584.0,2293.0,2493.0,12213789.0,
2010.0,1584.0,2278.0,2474.0,12213792.0,
2010.0,1584.0,2266.0,2454.0,12213796.0,
2014.0,1585.0,2250.0,2433.0,12213799.0,
2011.0,1585.0,2238.0,2412.0,12213803.0,
2011.0,1583.0,2223.0,2390.0,12213807.0,
2010.0,1584.0,2208.0,2370.0,12213810.0,
2011.0,1585.0,2194.0,2352.0,12213814.0,
2011.0,1584.0,2185.0,2335.0,12213818.0,
2011.0,1585.0,2172.0,2318.0,12213821.0,
2011.0,1585.0,2162.0,2302.0,12213825.0,
2010.0,1586.0,2150.0,2288.0,12213828.0,
2010.0,1584.0,2142.0,2271.0,12213832.0,
2011.0,1585.0,2132.0,2258.0,12213836.0,
2012.0,1585.0,2123.0,2240.0,12213839.0,
2011.0,1590.0,2116.0,2225.0,12213843.0,
2011.0,1584.0,2109.0,2209.0,12213847.0,
2010.0,1584.0,2102.0,2197.0,12213850.0,
2010.0,1583.0,2092.0,2185.0,12213854.0,
2010.0,1585.0,2091.0,2175.0,12213858.0,
2010.0,1583.0,2086.0,2156.0,12213861.0,
2010.0,1586.0,2078.0,2153.0,12213865.0,
2010.0,1584.0,2079.0,2143.0,12213868.0,
2011.0,1585.0,2073.0,2135.0,12213872.0,
2010.0,1584.0,2071.0,2128.0,12213876.0,
2009.0,1585.0,2068.0,2116.0,12213879.0,
2009.0,1586.0,2067.0,2109.0,12213883.0,
2010.0,1585.0,2067.0,2102.0,12213887.0,
2010.0,1586.0,2064.0,2098.0,12213890.0,
2010.0,1585.0,2064.0,2088.0,12213894.0,
2010.0,1587.0,2066.0,2086.0,12213898.0,
2009.0,1585.0,2069.0,2079.0,12213901.0,
2009.0,1585.0,2071.0,2078.0,12213905.0,
2010.0,1584.0,2073.0,2069.0,12213908.0,
2010.0,1584.0,2077.0,2064.0,12213912.0,
2010.0,1584.0,2080.0,2062.0,12213916.0,
2010.0,1584.0,2082.0,2060.0,12213919.0,
2011.0,1585.0,2086.0,2052.0,12213923.0,
2010.0,1584.0,2081.0,2048.0,12213927.0,
2010.0,1585.0,2089.0,2043.0,12213930.0,
2007.0,1585.0,2093.0,2034.0,12213934.0,
2010.0,1585.0,2097.0,2035.0,12213938.0,
2010.0,1584.0,2101.0,2026.0,12213941.0,
2010.0,1586.0,2103.0,2025.0,12213945.0,
2010.0,1585.0,2104.0,2015.0,12213948.0,
2011.0,1583.0,2104.0,2010.0,12213952.0,
2010.0,1584.0,2106.0,2002.0,12213956.0,
2011.0,1584.0,2107.0,1998.0,12213959.0,
2009.0,1584.0,2108.0,1993.0,12213963.0,
2010.0,1583.0,2108.0,1987.0,12213967.0,
2010.0,1584.0,2108.0,1977.0,12213970.0,
2010.0,1585.0,2107.0,1970.0,12213974.0,
2010.0,1583.0,2104.0,1964.0,12213978.0,
2010.0,1582.0,2103.0,1951.0,12213981.0,
2011.0,1583.0,2106.0,1943.0,12213985.0,
2011.0,1583.0,2102.0,1939.0,12213988.0,
2009.0,1585.0,2095.0,1926.0,12213992.0,
2010.0,1585.0,2093.0,1923.0,12213996.0,
2011.0,1583.0,2090.0,1916.0,12213999.0,
2010.0,1584.0,2083.0,1915.0,12214003.0,
2010.0,1583.0,2078.0,1910.0,12214007.0,
2011.0,1584.0,2073.0,1905.0,12214010.0,
2010.0,1584.0,2065.0,1897.0,12214014.0,
2010.0,1583.0,2059.0,1893.0,12214017.0,
2010.0,1580.0,2053.0,1888.0,12214021.0,
2010.0,1584.0,2046.0,1884.0,12214025.0,
2010.0,1584.0,2042.0,1881.0,12214028.0,
2012.0,1582.0,2034.0,1873.0,12214032.0,
2010.0,1585.0,2030.0,1869.0,12214036.0,
2010.0,1583.0,2024.0,1863.0,12214039.0,
2010.0,1582.0,2014.0,1856.0,12214043.0,
2009.0,1585.0,2013.0,1852.0,12214047.0,
2011.0,1585.0,2004.0,1845.0,12214050.0,
2011.0,1583.0,1999.0,1841.0,12214054.0,
2011.0,1583.0,1992.0,1838.0,12214057.0,
2010.0,1584.0,1984.0,1830.0,12214061.0,
2010.0,1582.0,1978.0,1828.0,12214065.0,
2009.0,1584.0,1973.0,1822.0,12214068.0,
2003.0,1584.0,1967.0,1817.0,12214072.0,
2010.0,1583.0,1967.0,1810.0,12214076.0,
2011.0,1586.0,1956.0,1806.0,12214079.0,
2010.0,1579.0,1953.0,1802.0,12214083.0,
2010.0,1583.0,1950.0,1795.0,12214087.0,
2010.0,1585.0,1945.0,1792.0,12214090.0,
2009.0,1582.0,1943.0,1788.0,12214094.0,
2010.0,1583.0,1940.0,1785.0,12214097.0,
2011.0,1583.0,1938.0,1782.0,12214101.0,
2010.0,1583.0,1935.0,1782.0,12214105.0,
2010.0,1583.0,1933.0,1776.0,12214108.0,
2011.0,1577.0,1933.0,1773.0,12214112.0,
2010.0,1583.0,1932.0,1770.0,12214116.0,
2011.0,1582.0,1933.0,1764.0,12214119.0,
2009.0,1582.0,1928.0,1758.0,12214123.0,
2010.0,1581.0,1935.0,1752.0,12214127.0,
2014.0,1584.0,1937.0,1745.0,12214130.0,
2009.0,1584.0,1941.0,1740.0,12214134.0,
2011.0,1583.0,1940.0,1724.0,12214137.0,
2010.0,1582.0,1942.0,1727.0,12214141.0,
2009.0,1582.0,1943.0,1720.0,12214145.0,
2011.0,1584.0,1944.0,1717.0,12214148.0,
2009.0,1584.0,1945.0,1708.0,12214152.0,
2009.0,1584.0,1945.0,1703.0,12214156.0,
2010.0,1583.0,1949.0,1700.0,12214159.0,
2009.0,1582.0,1950.0,1694.0,12214163.0,
2010.0,1582.0,1951.0,1691.0,12214167.0,
2009.0,1583.0,1953.0,1691.0,12214170.0,
2010.0,1582.0,1957.0,1686.0,12214174.0,
2009.0,1582.0,1960.0,1683.0,12214177.0,
2009.0,1584.0,1966.0,1682.0,12214181.0,
2011.0,1582.0,1967.0,1678.0,12214185.0,
2010.0,1586.0,1972.0,1677.0,12214188.0,
2009.0,1583.0,1972.0,1672.0,12214192.0,
2009.0,1583.0,1973.0,1671.0,12214196.0,
2010.0,1582.0,1975.0,1669.0,12214199.0,
2010.0,1584.0,1977.0,1665.0,12214203.0,
2010.0,1582.0,1979.0,1662.0,12214206.0,
2010.0,1579.0,1981.0,1660.0,12214210.0,
2011.0,1583.0,1979.0,1658.0,12214214.0,
2010.0,1583.0,1983.0,1657.0,12214217.0,
2010.0,1584.0,1980.0,1652.0,12214221.0,
2009.0,1584.0,1977.0,1649.0,12214225.0,
2010.0,1581.0,1978.0,1646.0,12214228.0,
2010.0,1582.0,1976.0,1642.0,12214232.0,
2009.0,1581.0,1977.0,1640.0,12214236.0,
2009.0,1581.0,1977.0,1638.0,12214239.0,
2010.0,1581.0,1975.0,1634.0,12214243.0,
2010.0,1581.0,1974.0,1637.0,12214246.0,
2010.0,1583.0,1973.0,1633.0,12214250.0,
2011.0,1582.0,1975.0,1633.0,12214254.0,
2009.0,1583.0,1976.0,1629.0,12214257.0,
2010.0,1581.0,1976.0,1629.0,12214261.0,
2010.0,1584.0,1974.0,1626.0,12214265.0,
2010.0,1582.0,1974.0,1622.0,12214268.0,
2009.0,1582.0,1977.0,1615.0,12214272.0,
2010.0,1581.0,1973.0,1611.0,12214276.0,
2009.0,1581.0,1969.0,1602.0,12214279.0,
2010.0,1580.0,1969.0,1600.0,12214283.0,
2010.0,1581.0,1963.0,1593.0,12214286.0,
2009.0,1581.0,1961.0,1593.0,12214290.0,
2009.0,1581.0,1962.0,1588.0,12214294.0,
2009.0,1582.0,1956.0,1585.0,12214297.0,
2010.0,1581.0,1955.0,1591.0,12214301.0,
2011.0,1582.0,1955.0,1580.0,12214305.0,
2010.0,1581.0,1952.0,1584.0,12214308.0,
2009.0,1583.0,1951.0,1580.0,12214312.0,
2011.0,1582.0,1949.0,1580.0,12214316.0,
2009.0,1581.0,1949.0,1582.0,12214319.0,
2010.0,1580.0,1946.0,1582.0,12214323.0,
2014.0,1582.0,1943.0,1579.0,12214326.0,
2009.0,1580.0,1942.0,1585.0,12214330.0,
2009.0,1582.0,1942.0,1586.0,12214334.0,
2009.0,1581.0,1940.0,1593.0,12214337.0,
2007.0,1581.0,1939.0,1599.0,12214341.0,
2008.0,1579.0,1937.0,1606.0,12214345.0,
2009.0,1581.0,1939.0,1613.0,12214348.0,
2003.0,1581.0,1939.0,1626.0,12214352.0,
2009.0,1583.0,1941.0,1639.0,12214356.0,
2009.0,1583.0,1943.0,1659.0,12214359.0,
2009.0,1581.0,1944.0,1676.0,12214363.0,
2009.0,1583.0,1949.0,1701.0,12214366.0,
2012.0,1582.0,1952.0,1726.0,12214370.0,
2010.0,1581.0,1958.0,1755.0,12214374.0,
2009.0,1581.0,1962.0,1787.0,12214377.0,
2009.0,1581.0,1972.0,1820.0,12214381.0,
2007.0,1581.0,1981.0,1856.0,12214385.0,
2009.0,1582.0,1996.0,1899.0,12214388.0,
2009.0,1581.0,2008.0,1944.0,12214392.0,
2009.0,1583.0,2026.0,1984.0,12214395.0,
2009.0,1581.0,2043.0,2041.0,12214399.0,
2009.0,1581.0,2065.0,2091.0,12214403.0,
2009.0,1582.0,2087.0,2144.0,12214406.0,
2009.0,1584.0,2116.0,2199.0,12214410.0,
2010.0,1582.0,2148.0,2254.0,12214414.0,
2009.0,1582.0,2182.0,2310.0,12214417.0,
2010.0,1581.0,2215.0,2367.0,12214421.0,
2009.0,1582.0,2251.0,2421.0,12214425.0,
2009.0,1581.0,2290.0,2474.0,12214428.0,
2010.0,1580.0,2333.0,2524.0,12214432.0,
2009.0,1580.0,2374.0,2576.0,12214435.0,
2009.0,1586.0,2417.0,2626.0,12214439.0,
2009.0,1582.0,2459.0,2669.0,12214443.0,
2009.0,1587.0,2503.0,2714.0,12214446.0,
2008.0,1581.0,2544.0,2756.0,12214450.0,
2009.0,1582.0,2589.0,2797.0,12214454.0,
2009.0,1582.0,2632.0,2832.0,12214457.0,
2009.0,1582.0,2676.0,2867.0,12214461.0,
2009.0,1582.0,2718.0,2897.0,12214465.0,
2009.0,1582.0,2757.0,2928.0,12214468.0,
2009.0,1582.0,2792.0,2952.0,12214472.0,
2009.0,1582.0,2822.0,2979.0,12214475.0,
2009.0,1582.0,2855.0,2999.0,12214479.0,
2009.0,1581.0,2877.0,3019.0,12214483.0,
2009.0,1581.0,2897.0,3039.0,12214486.0,
2009.0,1581.0,2913.0,3054.0,12214490.0,
2009.0,1580.0,2930.0,3065.0,12214494.0,
2010.0,1581.0,2938.0,3075.0,12214497.0,
2010.0,1580.0,2945.0,3086.0,12214501.0,
2008.0,1581.0,2947.0,3089.0,12214505.0,
2009.0,1582.0,2948.0,3094.0,12214508.0,
2009.0,1582.0,2946.0,3094.0,12214512.0,
2010.0,1581.0,2937.0,3098.0,12214515.0,
2009.0,1581.0,2929.0,3092.0,12214519.0,
2009.0,1581.0,2916.0,3085.0,12214523.0,
2009.0,1582.0,2903.0,3078.0,12214526.0,
2009.0,1579.0,2885.0,3067.0,12214530.0,
2010.0,1581.0,2867.0,3062.0,12214534.0,
2009.0,1581.0,2844.0,3049.0,12214537.0,
2010.0,1580.0,2824.0,3037.0,12214541.0,
2008.0,1580.0,2802.0,3025.0,12214545.0,
2010.0,1582.0,2776.0,3013.0,12214548.0,
2009.0,1581.0,2755.0,3002.0,12214552.0,
2010.0,1581.0,2731.0,2988.0,12214555.0,
2011.0,1581.0,2708.0,2971.0,12214559.0,
2007.0,1580.0,2684.0,2958.0,12214563.0,
2010.0,1581.0,2658.0,2942.0,12214566.0,
2008.0,1581.0,2636.0,2925.0,12214570.0,
2009.0,1582.0,2611.0,2908.0,12214574.0,
2009.0,1581.0,2584.0,2891.0,12214577.0,
2008.0,1581.0,2561.0,2873.0,12214581.0,
2009.0,1581.0,2537.0,2856.0,12214585.0,
2009.0,1580.0,2515.0,2837.0,12214588.0,
2009.0,1580.0,2494.0,2819.0,12214592.0,
2008.0,1581.0,2469.0,2796.0,12214595.0,
2009.0,1581.0,2452.0,2775.0,12214599.0,
2008.0,1581.0,2429.0,2750.0,12214603.0,
2007.0,1579.0,2413.0,2728.0,12214606.0,
2008.0,1581.0,2394.0,2702.0,12214610.0,
2009.0,1580.0,2376.0,2676.0,12214614.0,
2008.0,1580.0,2359.0,2651.0,12214617.0,
2008.0,1580.0,2340.0,2627.0,12214621.0,
2007.0,1582.0,2327.0,2599.0,12214624.0,
2006.0,1581.0,2311.0,2575.0,12214628.0,
2001.0,1581.0,2299.0,2545.0,12214632.0,
2007.0,1580.0,2284.0,2520.0,12214635.0,
2008.0,1580.0,2270.0,2493.0,12214639.0,
2007.0,1580.0,2255.0,2467.0,12214643.0,
2007.0,1580.0,2240.0,2444.0,12214646.0,
2007.0,1581.0,2225.0,2423.0,12214650.0,
2008.0,1580.0,2212.0,2401.0,12214654.0,
2007.0,1579.0,2199.0,2379.0,12214657.0,
2007.0,1581.0,2184.0,2355.0,12214661.0,
2010.0,1580.0,2171.0,2337.0,12214664.0,
2006.0,1581.0,2159.0,2317.0,12214668.0,
2006.0,1579.0,2144.0,2299.0,12214672.0,
2006.0,1580.0,2132.0,2279.0,12214675.0,
2006.0,1581.0,2121.0,2268.0,12214679.0,
2007.0,1581.0,2111.0,2251.0,12214683.0,
2006.0,1580.0,2100.0,2237.0,12214686.0,
2006.0,1581.0,2093.0,2225.0,12214690.0,
2006.0,1580.0,2083.0,2214.0,12214694.0,
2006.0,1580.0,2076.0,2203.0,12214697.0,
2006.0,1580.0,2068.0,2195.0,12214701.0,
2005.0,1580.0,2061.0,2185.0,12214704.0,
2005.0,1580.0,2068.0,2182.0,12214708.0,
2006.0,1579.0,2058.0,2171.0,12214712.0,
2006.0,1580.0,2053.0,2167.0,12214715.0,
2004.0,1581.0,2050.0,2161.0,12214719.0,
2005.0,1581.0,2052.0,2158.0,12214723.0,
2006.0,1580.0,2048.0,2152.0,12214726.0,
2005.0,1579.0,2052.0,2148.0,12214730.0,
2004.0,1581.0,2052.0,2141.0,12214734.0,
2004.0,1580.0,2054.0,2136.0,12214737.0,
2005.0,1580.0,2057.0,2129.0,12214741.0,
2003.0,1581.0,2059.0,2126.0,12214744.0,
2004.0,1581.0,2065.0,2115.0,12214748.0,
2002.0,1581.0,2071.0,2110.0,12214752.0,
2004.0,1580.0,2069.0,2106.0,12214755.0,
2003.0,1581.0,2075.0,2098.0,12214759.0,
2004.0,1580.0,2079.0,2094.0,12214763.0,
2003.0,1580.0,2081.0,2085.0,12214766.0,
2003.0,1582.0,2081.0,2084.0,12214770.0,
2003.0,1580.0,2084.0,2072.0,12214774.0,
2003.0,1580.0,2085.0,2066.0,12214777.0,
2002.0,1582.0,2085.0,2064.0,12214781.0,
2002.0,1579.0,2086.0,2054.0,12214784.0,
2003.0,1581.0,2088.0,2045.0,12214788.0,
2003.0,1580.0,2087.0,2036.0,12214792.0,
2003.0,1582.0,2089.0,2026.0,12214795.0,
2001.0,1579.0,2089.0,2018.0,12214799.0,
2002.0,1580.0,2090.0,2010.0,12214803.0,
2001.0,1581.0,2091.0,2002.0,12214806.0,
2001.0,1580.0,2093.0,1995.0,12214810.0,
2002.0,1583.0,2087.0,1986.0,12214814.0,
2002.0,1581.0,2086.0,1982.0,12214817.0,
2001.0,1579.0,2078.0,1975.0,12214821.0,
2000.0,1580.0,2079.0,1972.0,12214824.0,
2001.0,1581.0,2079.0,1965.0,12214828.0,
2000.0,1579.0,2070.0,1958.0,12214832.0,
2001.0,1581.0,2065.0,1948.0,12214835.0,
2000.0,1580.0,2061.0,1942.0,12214839.0,
2000.0,1581.0,2056.0,1932.0,12214843.0,
2000.0,1580.0,2049.0,1923.0,12214846.0,
2000.0,1579.0,2044.0,1913.0,12214850.0,
1999.0,1580.0,2034.0,1906.0,12214853.0,
2000.0,1581.0,2033.0,1900.0,12214857.0,
1999.0,1579.0,2026.0,1889.0,12214861.0,
1998.0,1579.0,2018.0,1879.0,12214864.0,
1999.0,1581.0,2012.0,1874.0,12214868.0,
1999.0,1581.0,2006.0,1868.0,12214872.0,
1998.0,1580.0,2002.0,1856.0,12214875.0,
1999.0,1580.0,1996.0,1850.0,12214879.0,
1998.0,1581.0,1990.0,1843.0,12214883.0,
1998.0,1581.0,1983.0,1834.0,12214886.0,
1993.0,1581.0,1976.0,1827.0,12214890.0,
1997.0,1580.0,1968.0,1818.0,12214893.0,
1998.0,1579.0,1965.0,1809.0,12214897.0,
1997.0,1580.0,1959.0,1804.0,12214901.0,
1996.0,1580.0,1950.0,1798.0,12214904.0,
1996.0,1580.0,1942.0,1794.0,12214908.0,
1998.0,1580.0,1940.0,1783.0,12214912.0,
1997.0,1581.0,1937.0,1776.0,12214915.0,
1995.0,1580.0,1931.0,1772.0,12214919.0,
1996.0,1580.0,1928.0,1767.0,12214923.0,
1996.0,1580.0,1924.0,1761.0,12214926.0,
1995.0,1579.0,1920.0,1756.0,12214930.0,
1995.0,1581.0,1919.0,1751.0,12214933.0,
1995.0,1582.0,1919.0,1748.0,12214937.0,
1995.0,1580.0,1917.0,1745.0,12214941.0,
1994.0,1581.0,1917.0,1739.0,12214944.0,
1994.0,1580.0,1919.0,1735.0,12214948.0,
1994.0,1580.0,1917.0,1731.0,12214952.0,
1994.0,1579.0,1919.0,1727.0,12214955.0,
1994.0,1580.0,1917.0,1727.0,12214959.0,
1995.0,1580.0,1920.0,1722.0,12214963.0,
1994.0,1580.0,1915.0,1715.0,12214966.0,
1994.0,1580.0,1914.0,1715.0,12214970.0,
1992.0,1579.0,1911.0,1708.0,12214973.0,
1993.0,1581.0,1912.0,1708.0,12214977.0,
1991.0,1581.0,1909.0,1703.0,12214981.0,
1993.0,1581.0,1907.0,1698.0,12214984.0,
1993.0,1580.0,1906.0,1698.0,12214988.0,
1992.0,1579.0,1907.0,1693.0,12214992.0,
1992.0,1578.0,1909.0,1689.0,12214995.0,
1992.0,1581.0,1908.0,1694.0,12214999.0,
1989.0,1579.0,1911.0,1688.0,12215003.0,
1991.0,1579.0,1910.0,1690.0,12215006.0,
1992.0,1580.0,1910.0,1691.0,12215010.0,
1990.0,1578.0,1915.0,1688.0,12215013.0,
1992.0,1579.0,1915.0,1687.0,12215017.0,
1991.0,1580.0,1917.0,1689.0,12215021.0,
1992.0,1580.0,1918.0,1686.0,12215024.0,
1990.0,1584.0,1917.0,1687.0,12215028.0,
1990.0,1580.0,1915.0,1683.0,12215032.0,
1990.0,1579.0,1918.0,1680.0,12215035.0,
1988.0,1579.0,1918.0,1679.0,12215039.0,
1990.0,1577.0,1920.0,1680.0,12215042.0,
1989.0,1578.0,1922.0,1675.0,12215046.0,
1989.0,1579.0,1922.0,1677.0,12215050.0,
1989.0,1582.0,1924.0,1675.0,12215053.0,
1989.0,1578.0,1924.0,1674.0,12215057.0,
1989.0,1579.0,1923.0,1673.0,12215061.0,
1988.0,1579.0,1920.0,1673.0,12215064.0,
1987.0,1578.0,1921.0,1667.0,12215068.0,
1987.0,1579.0,1920.0,1669.0,12215072.0,
1986.0,1577.0,1922.0,1665.0,12215075.0,
1986.0,1580.0,1925.0,1660.0,12215079.0,
1986.0,1577.0,1926.0,1656.0,12215082.0,
1986.0,1579.0,1925.0,1654.0,12215086.0,
1985.0,1581.0,1927.0,1648.0,12215090.0,
1986.0,1579.0,1932.0,1646.0,12215093.0,
1986.0,1578.0,1930.0,1641.0,12215097.0,
1985.0,1580.0,1930.0,1641.0,12215101.0,
1985.0,1579.0,1935.0,1637.0,12215104.0,
1985.0,1579.0,1938.0,1634.0,12215108.0,
1984.0,1579.0,1941.0,1634.0,12215112.0,
1985.0,1579.0,1940.0,1632.0,12215115.0,
1984.0,1579.0,1943.0,1630.0,12215119.0,
1984.0,1580.0,1945.0,1628.0,12215122.0,
1983.0,1578.0,1945.0,1626.0,12215126.0,
1982.0,1578.0,1947.0,1620.0,12215130.0,
1983.0,1579.0,1950.0,1623.0,12215133.0,
1982.0,1579.0,1949.0,1620.0,12215137.0,
1982.0,1578.0,1950.0,1617.0,12215141.0,
1981.0,1579.0,1951.0,1613.0,12215144.0,
1982.0,1578.0,1949.0,1615.0,12215148.0,
1981.0,1577.0,1948.0,1614.0,12215152.0,
1981.0,1578.0,1948.0,1615.0,12215155.0,
1980.0,1578.0,1948.0,1615.0,12215159.0,
1981.0,1578.0,1945.0,1617.0,12215162.0,
1980.0,1578.0,1946.0,1619.0,12215166.0,
1979.0,1578.0,1945.0,1620.0,12215170.0,
1979.0,1578.0,1941.0,1621.0,12215173.0,
1979.0,1578.0,1945.0,1620.0,12215177.0,
1983.0,1577.0,1940.0,1621.0,12215181.0,
1976.0,1576.0,1941.0,1621.0,12215184.0,
1978.0,1578.0,1935.0,1622.0,12215188.0,
1978.0,1578.0,1938.0,1622.0,12215192.0,
1978.0,1579.0,1937.0,1623.0,12215195.0,
1978.0,1578.0,1936.0,1623.0,12215199.0,
1978.0,1577.0,1935.0,1629.0,12215202.0,
1977.0,1576.0,1933.0,1633.0,12215206.0,
1976.0,1578.0,1934.0,1644.0,12215210.0,
1976.0,1577.0,1929.0,1655.0,12215213.0,
1976.0,1576.0,1933.0,1669.0,12215217.0,
1983.0,1579.0,1933.0,1686.0,12215221.0,
1975.0,1583.0,1937.0,1706.0,12215224.0,
1975.0,1577.0,1936.0,1729.0,12215228.0,
1976.0,1580.0,1942.0,1754.0,12215232.0,
1974.0,1579.0,1949.0,1782.0,12215235.0,
1973.0,1577.0,1953.0,1815.0,12215239.0,
1970.0,1577.0,1962.0,1852.0,12215242.0,
1973.0,1579.0,1972.0,1891.0,12215246.0,
1973.0,1578.0,1986.0,1936.0,12215250.0,
1973.0,1577.0,2005.0,1978.0,12215253.0,
1973.0,1579.0,2026.0,2030.0,12215257.0,
1972.0,1578.0,2047.0,2081.0,12215261.0,
1972.0,1578.0,2074.0,2134.0,12215264.0,
1971.0,1577.0,2106.0,2189.0,12215268.0,
1971.0,1578.0,2138.0,2243.0,12215271.0,
1970.0,1578.0,2175.0,2300.0,12215275.0,
1973.0,1578.0,2216.0,2357.0,12215279.0,
1970.0,1579.0,2256.0,2415.0,12215282.0,
1969.0,1577.0,2303.0,2471.0,12215286.0,
1969.0,1578.0,2350.0,2526.0,12215290.0,
1969.0,1579.0,2398.0,2581.0,12215293.0,
1969.0,1578.0,2446.0,2630.0,12215297.0,
1968.0,1577.0,2496.0,2679.0,12215301.0,
1967.0,1579.0,2546.0,2724.0,12215304.0,
1967.0,1578.0,2594.0,2767.0,12215308.0,
1966.0,1579.0,2641.0,2806.0,12215311.0,
1967.0,1578.0,2687.0,2843.0,12215315.0,
1966.0,1575.0,2731.0,2880.0,12215319.0,
1967.0,1579.0,2776.0,2909.0,12215322.0,
1964.0,1576.0,2813.0,2939.0,12215326.0,
1964.0,1578.0,2854.0,2963.0,12215330.0,
1965.0,1576.0,2890.0,2983.0,12215333.0,
1965.0,1578.0,2920.0,2999.0,12215337.0,
1964.0,1577.0,2948.0,3017.0,12215341.0,
1964.0,1579.0,2973.0,3028.0,12215344.0,
1964.0,1576.0,2989.0,3043.0,12215348.0,
1963.0,1578.0,3009.0,3050.0,12215351.0,
1963.0,1576.0,3021.0,3053.0,12215355.0,
1963.0,1578.0,3030.0,3056.0,12215359.0,
1962.0,1578.0,3034.0,3053.0,12215362.0,
1962.0,1579.0,3033.0,3054.0,12215366.0,
1962.0,1578.0,3030.0,3052.0,12215370.0,
1961.0,1578.0,3020.0,3048.0,12215373.0,
1962.0,1579.0,3010.0,3042.0,12215377.0,
1961.0,1578.0,2996.0,3036.0,12215381.0,
1960.0,1577.0,2981.0,3027.0,12215384.0,
1961.0,1577.0,2961.0,3019.0,12215388.0,
1959.0,1578.0,2939.0,3006.0,12215391.0,
1960.0,1576.0,2914.0,2997.0,12215395.0,
1960.0,1577.0,2888.0,2985.0,12215399.0,
1958.0,1577.0,2864.0,2970.0,12215402.0,
1958.0,1578.0,2838.0,2958.0,12215406.0,
1958.0,1577.0,2810.0,2943.0,12215410.0,
1961.0,1578.0,2787.0,2926.0,12215413.0,
1957.0,1577.0,2753.0,2913.0,12215417.0,
1959.0,1575.0,2732.0,2895.0,12215421.0,
1958.0,1577.0,2701.0,2871.0,12215424.0,
1957.0,1576.0,2673.0,2862.0,12215428.0,
1957.0,1576.0,2648.0,2846.0,12215431.0,
1957.0,1576.0,2625.0,2830.0,12215435.0,
1956.0,1578.0,2596.0,2810.0,12215439.0,
1956.0,1574.0,2571.0,2790.0,12215442.0,
1955.0,1576.0,2546.0,2771.0,12215446.0,
1956.0,1576.0,2524.0,2752.0,12215450.0,
1955.0,1577.0,2501.0,2734.0,12215453.0,
1955.0,1577.0,2480.0,2715.0,12215457.0,
1955.0,1577.0,2458.0,2695.0,12215460.0,
1954.0,1576.0,2440.0,2673.0,12215464.0,
1953.0,1576.0,2417.0,2652.0,12215468.0,
1946.0,1576.0,2401.0,2628.0,12215471.0,
1954.0,1577.0,2383.0,2603.0,12215475.0,
1954.0,1576.0,2370.0,2577.0,12215479.0,
1954.0,1575.0,2353.0,2551.0,12215482.0,
1952.0,1579.0,2340.0,2522.0,12215486.0,
1952.0,1578.0,2322.0,2500.0,12215490.0,
1953.0,1576.0,2305.0,2473.0,12215493.0,
1953.0,1576.0,2292.0,2447.0,12215497.0,
1948.0,1576.0,2278.0,2424.0,12215500.0,
1952.0,1576.0,2264.0,2399.0,12215504.0,
1951.0,1576.0,2251.0,2376.0,12215508.0,
1951.0,1576.0,2239.0,2355.0,12215511.0,
1951.0,1575.0,2224.0,2334.0,12215515.0,
1950.0,1576.0,2210.0,2317.0,12215519.0,
1951.0,1576.0,2197.0,2299.0,12215522.0,
1950.0,1574.0,2182.0,2285.0,12215526.0,
1946.0,1576.0,2171.0,2269.0,12215530.0,
1950.0,1577.0,2160.0,2260.0,12215533.0,
1949.0,1575.0,2147.0,2248.0,12215537.0,
1949.0,1576.0,2134.0,2241.0,12215540.0,
1949.0,1574.0,2127.0,2228.0,12215544.0,
1949.0,1576.0,2117.0,2221.0,12215548.0,
1947.0,1575.0,2107.0,2211.0,12215551.0,
1948.0,1576.0,2095.0,2207.0,12215555.0,
1949.0,1576.0,2087.0,2202.0,12215559.0,
1948.0,1575.0,2079.0,2195.0,12215562.0,
1947.0,1575.0,2071.0,2189.0,12215566.0,
1948.0,1575.0,2065.0,2186.0,12215570.0,
1947.0,1575.0,2059.0,2177.0,12215573.0,
1946.0,1576.0,2057.0,2172.0,12215577.0,
1946.0,1580.0,2056.0,2165.0,12215580.0,
1946.0,1575.0,2054.0,2158.0,12215584.0,
1946.0,1576.0,2050.0,2151.0,12215588.0,
1947.0,1575.0,2051.0,2140.0,12215591.0,
1946.0,1574.0,2052.0,2133.0,12215595.0,
1946.0,1576.0,2053.0,2129.0,12215599.0,
1945.0,1575.0,2055.0,2120.0,12215602.0,
1946.0,1574.0,2056.0,2115.0,12215606.0,
1945.0,1575.0,2057.0,2107.0,12215610.0,
1945.0,1574.0,2061.0,2102.0,12215613.0,
1944.0,1574.0,2062.0,2095.0,12215617.0,
1944.0,1576.0,2065.0,2088.0,12215620.0,
1944.0,1576.0,2066.0,2079.0,12215624.0,
1943.0,1576.0,2069.0,2069.0,12215628.0,
1945.0,1574.0,2069.0,2063.0,12215631.0,
1944.0,1574.0,2073.0,2053.0,12215635.0,
1943.0,1574.0,2076.0,2047.0,12215639.0,
1943.0,1576.0,2076.0,2041.0,12215642.0,
1943.0,1575.0,2079.0,2033.0,12215646.0,
1943.0,1575.0,2076.0,2029.0,12215650.0,
1942.0,1576.0,2080.0,2023.0,12215653.0,
1942.0,1574.0,2077.0,2018.0,12215657.0,
1941.0,1574.0,2076.0,2012.0,12215660.0,
1941.0,1574.0,2074.0,2004.0,12215664.0,
1940.0,1574.0,2072.0,1999.0,12215668.0,
1940.0,1575.0,2067.0,1989.0,12215671.0,
1940.0,1576.0,2062.0,1985.0,12215675.0,
1939.0,1574.0,2059.0,1978.0,12215679.0,
1941.0,1574.0,2055.0,1968.0,12215682.0,
1940.0,1577.0,2052.0,1964.0,12215686.0,
1940.0,1575.0,2046.0,1951.0,12215689.0,
1941.0,1574.0,2041.0,1946.0,12215693.0,
1939.0,1575.0,2035.0,1939.0,12215697.0,
1939.0,1575.0,2031.0,1929.0,12215700.0,
1938.0,1575.0,2023.0,1915.0,12215704.0,
1938.0,1575.0,2019.0,1905.0,12215708.0,
1937.0,1575.0,2015.0,1897.0,12215711.0,
1937.0,1575.0,2007.0,1885.0,12215715.0,
1938.0,1574.0,2004.0,1876.0,12215719.0,
1937.0,1574.0,1999.0,1867.0,12215722.0,
1936.0,1575.0,1990.0,1855.0,12215726.0,
1937.0,1575.0,1985.0,1846.0,12215729.0,
1936.0,1576.0,1982.0,1838.0,12215733.0,
1935.0,1575.0,1977.0,1832.0,12215737.0,
1935.0,1577.0,1971.0,1826.0,12215740.0,
1935.0,1575.0,1964.0,1820.0,12215744.0,
1934.0,1576.0,1960.0,1816.0,12215748.0,
1933.0,1576.0,1953.0,1813.0,12215751.0,
1933.0,1574.0,1946.0,1805.0,12215755.0,
1933.0,1575.0,1940.0,1804.0,12215759.0,
1932.0,1575.0,1937.0,1797.0,12215762.0,
1932.0,1575.0,1934.0,1793.0,12215766.0,
1932.0,1576.0,1931.0,1790.0,12215769.0,
1931.0,1577.0,1925.0,1783.0,12215773.0,
1932.0,1576.0,1922.0,1777.0,12215777.0,
1931.0,1577.0,1915.0,1772.0,12215780.0,
1929.0,1576.0,1912.0,1762.0,12215784.0,
1930.0,1576.0,1921.0,1755.0,12215788.0,
1930.0,1575.0,1908.0,1747.0,12215791.0,
1929.0,1576.0,1906.0,1738.0,12215795.0,
1929.0,1576.0,1903.0,1734.0,12215799.0,
1929.0,1575.0,1901.0,1723.0,12215802.0,
1929.0,1577.0,1901.0,1721.0,12215806.0,
1927.0,1578.0,1899.0,1718.0,12215809.0,
1927.0,1576.0,1897.0,1715.0,12215813.0,
1928.0,1575.0,1898.0,1713.0,12215817.0,
1927.0,1577.0,1897.0,1712.0,12215820.0,
1926.0,1576.0,1896.0,1709.0,12215824.0,
1926.0,1575.0,1895.0,1709.0,12215828.0,
1925.0,1576.0,1896.0,1709.0,12215831.0,
1925.0,1576.0,1897.0,1705.0,12215835.0,
1925.0,1577.0,1897.0,1702.0,12215839.0,
1924.0,1576.0,1898.0,1698.0,12215842.0,
1928.0,1577.0,1899.0,1695.0,12215846.0,
1924.0,1577.0,1903.0,1696.0,12215849.0,
1923.0,1576.0,1902.0,1693.0,12215853.0,
1923.0,1576.0,1904.0,1692.0,12215857.0,
1924.0,1576.0,1904.0,1691.0,12215860.0,
1923.0,1578.0,1904.0,1692.0,12215864.0,
1922.0,1576.0,1906.0,1691.0,12215868.0,
1921.0,1577.0,1907.0,1691.0,12215871.0,
1923.0,1578.0,1910.0,1689.0,12215875.0,
1922.0,1579.0,1906.0,1691.0,12215878.0,
1921.0,1578.0,1904.0,1687.0,12215882.0,
1920.0,1578.0,1903.0,1686.0,12215886.0,
1921.0,1579.0,1903.0,1678.0,12215889.0,
1920.0,1579.0,1900.0,1679.0,12215893.0,
1920.0,1578.0,1898.0,1673.0,12215897.0,
1920.0,1583.0,1898.0,1672.0,12215900.0,
1919.0,1578.0,1897.0,1668.0,12215904.0,
1921.0,1578.0,1893.0,1661.0,12215908.0,
1919.0,1581.0,1891.0,1655.0,12215911.0,
1919.0,1578.0,1890.0,1651.0,12215915.0,
1919.0,1581.0,1890.0,1645.0,12215918.0,
1918.0,1577.0,1886.0,1640.0,12215922.0,
1918.0,1579.0,1886.0,1635.0,12215926.0,
1918.0,1579.0,1886.0,1632.0,12215929.0,
1917.0,1578.0,1885.0,1630.0,12215933.0,
1916.0,1579.0,1883.0,1622.0,12215937.0,
1917.0,1578.0,1882.0,1621.0,12215940.0,
1916.0,1578.0,1878.0,1616.0,12215944.0,
1917.0,1578.0,1876.0,1616.0,12215948.0,
1916.0,1578.0,1876.0,1611.0,12215951.0,
1916.0,1579.0,1877.0,1612.0,12215955.0,
1915.0,1578.0,1874.0,1609.0,12215958.0,
1914.0,1579.0,1874.0,1602.0,12215962.0,
1915.0,1578.0,1875.0,1600.0,12215966.0,
1915.0,1578.0,1875.0,1597.0,12215969.0,
1914.0,1579.0,1870.0,1594.0,12215973.0,
1914.0,1579.0,1872.0,1593.0,12215977.0,
1917.0,1578.0,1872.0,1594.0,12215980.0,
1913.0,1579.0,1869.0,1591.0,12215984.0,
1915.0,1580.0,1867.0,1591.0,12215988.0,
1912.0,1578.0,1866.0,1589.0,12215991.0,
1912.0,1578.0,1864.0,1589.0,12215995.0,
1912.0,1579.0,1860.0,1587.0,12215998.0,
1912.0,1581.0,1863.0,1592.0,12216002.0,
1912.0,1582.0,1859.0,1593.0,12216006.0,
1911.0,1581.0,1858.0,1596.0,12216009.0,
1912.0,1581.0,1854.0,1597.0,12216013.0,
1911.0,1582.0,1852.0,1599.0,12216017.0,
1911.0,1580.0,1854.0,1602.0,12216020.0,
1910.0,1581.0,1855.0,1602.0,12216024.0,
1911.0,1581.0,1854.0,1605.0,12216028.0,
1910.0,1581.0,1852.0,1605.0,12216031.0,
1909.0,1580.0,1853.0,1602.0,12216035.0,
1909.0,1580.0,1852.0,1603.0,12216038.0,
1910.0,1581.0,1853.0,1601.0,12216042.0,
1910.0,1582.0,1850.0,1598.0,12216046.0,
1909.0,1580.0,1848.0,1597.0,12216049.0,
1909.0,1581.0,1846.0,1590.0,12216053.0,
1909.0,1582.0,1845.0,1593.0,12216057.0,
1908.0,1580.0,1845.0,1589.0,12216060.0,
1907.0,1581.0,1841.0,1590.0,12216064.0,
1907.0,1579.0,1840.0,1587.0,12216068.0,
1907.0,1581.0,1838.0,1588.0,12216071.0,
1908.0,1581.0,1837.0,1585.0,12216075.0,
1907.0,1582.0,1838.0,1586.0,12216078.0,
1907.0,1581.0,1833.0,1585.0,12216082.0,
1907.0,1581.0,1832.0,1585.0,12216086.0,
1906.0,1581.0,1831.0,1585.0,12216089.0,
1907.0,1582.0,1834.0,1585.0,12216093.0,
1906.0,1581.0,1831.0,1585.0,12216097.0,
1906.0,1582.0,1831.0,1588.0,12216100.0,
1905.0,1581.0,1830.0,1590.0,12216104.0,
1905.0,1582.0,1828.0,1597.0,12216107.0,
1906.0,1583.0,1828.0,1610.0,12216111.0,
1905.0,1582.0,1829.0,1618.0,12216115.0,
1904.0,1582.0,1830.0,1633.0,12216118.0,
1905.0,1582.0,1831.0,1650.0,12216122.0,
1905.0,1582.0,1832.0,1672.0,12216126.0,
1904.0,1583.0,1836.0,1695.0,12216129.0,
1904.0,1583.0,1842.0,1729.0,12216133.0,
1904.0,1581.0,1850.0,1757.0,12216137.0,
1904.0,1583.0,1860.0,1792.0,12216140.0,
1903.0,1586.0,1873.0,1828.0,12216144.0,
1904.0,1583.0,1892.0,1870.0,12216147.0,
1903.0,1583.0,1905.0,1913.0,12216151.0,
1901.0,1583.0,1925.0,1960.0,12216155.0,
1903.0,1582.0,1950.0,2011.0,12216158.0,
1903.0,1582.0,1979.0,2061.0,12216162.0,
1903.0,1583.0,2010.0,2109.0,12216166.0,
1903.0,1582.0,2042.0,2163.0,12216169.0,
1903.0,1583.0,2079.0,2216.0,12216173.0,
1903.0,1582.0,2122.0,2267.0,12216177.0,
1906.0,1582.0,2167.0,2317.0,12216180.0,
1901.0,1582.0,2214.0,2370.0,12216184.0,
1902.0,1583.0,2264.0,2418.0,12216187.0,
1902.0,1583.0,2313.0,2467.0,12216191.0,
1901.0,1583.0,2365.0,2513.0,12216195.0,
1901.0,1585.0,2420.0,2558.0,12216198.0,
1901.0,1584.0,2476.0,2599.0,12216202.0,
1901.0,1583.0,2529.0,2640.0,12216206.0,
1900.0,1584.0,2580.0,2682.0,12216209.0,
1901.0,1583.0,2632.0,2717.0,12216213.0,
1902.0,1584.0,2684.0,2747.0,12216217.0,
1901.0,1584.0,2732.0,2776.0,12216220.0,
1901.0,1583.0,2775.0,2802.0,12216224.0,
1900.0,1583.0,2814.0,2823.0,12216227.0,
1900.0,1583.0,2856.0,2842.0,12216231.0,
1900.0,1585.0,2888.0,2857.0,12216235.0,
1900.0,1583.0,2919.0,2873.0,12216238.0,
1900.0,1583.0,2943.0,2883.0,12216242.0,
1899.0,1584.0,2967.0,2892.0,12216246.0,
1900.0,1585.0,2984.0,2898.0,12216249.0,
1900.0,1584.0,2998.0,2901.0,12216253.0,
1899.0,1582.0,3008.0,2900.0,12216257.0,
1900.0,1584.0,3012.0,2898.0,12216260.0,
1896.0,1583.0,3012.0,2896.0,12216264.0,
1900.0,1585.0,3006.0,2892.0,12216267.0,
1899.0,1583.0,2998.0,2882.0,12216271.0,
1898.0,1586.0,2987.0,2885.0,12216275.0,
1898.0,1590.0,2970.0,2879.0,12216278.0,
1898.0,1584.0,2950.0,2874.0,12216282.0,
1898.0,1584.0,2928.0,2863.0,12216286.0,
1898.0,1585.0,2901.0,2853.0,12216289.0,
1896.0,1585.0,2872.0,2846.0,12216293.0,
1897.0,1586.0,2845.0,2833.0,12216297.0,
1897.0,1584.0,2814.0,2825.0,12216300.0,
1896.0,1586.0,2783.0,2812.0,12216304.0,
1897.0,1585.0,2751.0,2803.0,12216307.0,
1896.0,1581.0,2717.0,2788.0,12216311.0,
1896.0,1585.0,2684.0,2776.0,12216315.0,
1895.0,1585.0,2652.0,2758.0,12216318.0,
1896.0,1586.0,2621.0,2744.0,12216322.0,
1895.0,1586.0,2591.0,2727.0,12216326.0,
1895.0,1586.0,2557.0,2712.0,12216329.0,
1895.0,1587.0,2528.0,2694.0,12216333.0,
1895.0,1587.0,2499.0,2675.0,12216336.0,
1893.0,1586.0,2475.0,2656.0,12216340.0,
1894.0,1587.0,2448.0,2641.0,12216344.0,
1893.0,1587.0,2423.0,2622.0,12216347.0,
1893.0,1586.0,2400.0,2602.0,12216351.0,
1894.0,1587.0,2376.0,2576.0,12216355.0,
1894.0,1586.0,2352.0,2564.0,12216358.0,
1890.0,1588.0,2331.0,2541.0,12216362.0,
1892.0,1586.0,2307.0,2522.0,12216366.0,
1892.0,1587.0,2288.0,2499.0,12216369.0,
1892.0,1587.0,2268.0,2484.0,12216373.0,
1892.0,1588.0,2247.0,2455.0,12216376.0,
1891.0,1587.0,2230.0,2435.0,12216380.0,
1891.0,1588.0,2213.0,2415.0,12216384.0,
1891.0,1588.0,2196.0,2392.0,12216387.0,
1891.0,1589.0,2178.0,2370.0,12216391.0,
1891.0,1589.0,2165.0,2352.0,12216395.0,
1891.0,1588.0,2151.0,2331.0,12216398.0,
1890.0,1587.0,2135.0,2314.0,12216402.0,
1890.0,1588.0,2122.0,2295.0,12216406.0,
1890.0,1588.0,2108.0,2281.0,12216409.0,
1890.0,1589.0,2089.0,2267.0,12216413.0,
1890.0,1588.0,2082.0,2249.0,12216416.0,
1890.0,1588.0,2071.0,2243.0,12216420.0,
1889.0,1587.0,2058.0,2234.0,12216424.0,
1889.0,1589.0,2047.0,2220.0,12216427.0,
1888.0,1589.0,2038.0,2208.0,12216431.0,
1889.0,1588.0,2027.0,2195.0,12216435.0,
1888.0,1589.0,2020.0,2189.0,12216438.0,
1889.0,1588.0,2013.0,2181.0,12216442.0,
1895.0,1589.0,2004.0,2179.0,12216446.0,
1887.0,1586.0,1998.0,2166.0,12216449.0,
1888.0,1587.0,1993.0,2162.0,12216453.0,
1888.0,1590.0,1987.0,2155.0,12216456.0,
1887.0,1587.0,1986.0,2153.0,12216460.0,
1888.0,1590.0,1984.0,2153.0,12216464.0,
1888.0,1590.0,1980.0,2151.0,12216467.0,
1887.0,1589.0,1980.0,2152.0,12216471.0,
1886.0,1590.0,1986.0,2150.0,12216475.0,
1886.0,1590.0,1978.0,2148.0,12216478.0,
1886.0,1588.0,1978.0,2148.0,12216482.0,
1885.0,1590.0,1980.0,2148.0,12216486.0,
1885.0,1589.0,1985.0,2147.0,12216489.0,
1885.0,1587.0,1992.0,2146.0,12216493.0,
1885.0,1587.0,1996.0,2142.0,12216496.0,
1885.0,1587.0,2000.0,2144.0,12216500.0,
1885.0,1587.0,2004.0,2138.0,12216504.0,
1884.0,1588.0,2009.0,2136.0,12216507.0,
1884.0,1586.0,2012.0,2135.0,12216511.0,
1885.0,1587.0,2019.0,2125.0,12216515.0,
1885.0,1587.0,2024.0,2123.0,12216518.0,
1884.0,1588.0,2029.0,2118.0,12216522.0,
1883.0,1586.0,2031.0,2110.0,12216526.0,
1883.0,1586.0,2036.0,2109.0,12216529.0,
1882.0,1587.0,2040.0,2101.0,12216533.0,
1883.0,1587.0,2043.0,2093.0,12216536.0,
1883.0,1587.0,2046.0,2085.0,12216540.0,
1882.0,1586.0,2046.0,2075.0,12216544.0,
1881.0,1587.0,2052.0,2065.0,12216547.0,
1883.0,1587.0,2055.0,2058.0,12216551.0,
1881.0,1591.0,2054.0,2045.0,12216555.0,
1880.0,1586.0,2053.0,2035.0,12216558.0,
1881.0,1587.0,2057.0,2024.0,12216562.0,
1880.0,1587.0,2053.0,2013.0,12216565.0,
1880.0,1585.0,2050.0,2002.0,12216569.0,
1880.0,1586.0,2048.0,1989.0,12216573.0,
1880.0,1587.0,2043.0,1980.0,12216576.0,
1879.0,1585.0,2040.0,1966.0,12216580.0,
1875.0,1585.0,2033.0,1957.0,12216584.0,
1879.0,1586.0,2027.0,1944.0,12216587.0,
1879.0,1585.0,2019.0,1938.0,12216591.0,
1878.0,1586.0,2013.0,1925.0,12216595.0,
1878.0,1586.0,2005.0,1919.0,12216598.0,
1877.0,1582.0,1999.0,1910.0,12216602.0,
1877.0,1584.0,1992.0,1901.0,12216605.0,
1876.0,1585.0,1981.0,1894.0,12216609.0,
1877.0,1586.0,1974.0,1884.0,12216613.0,
1877.0,1585.0,1964.0,1876.0,12216616.0,
1876.0,1586.0,1956.0,1867.0,12216620.0,
1877.0,1585.0,1949.0,1859.0,12216624.0,
1876.0,1585.0,1940.0,1848.0,12216627.0,
1876.0,1584.0,1935.0,1840.0,12216631.0,
1875.0,1585.0,1928.0,1829.0,12216635.0,
1875.0,1585.0,1922.0,1820.0,12216638.0,
1875.0,1584.0,1920.0,1808.0,12216642.0,
1874.0,1584.0,1913.0,1798.0,12216645.0,
1873.0,1583.0,1909.0,1791.0,12216649.0,
1874.0,1583.0,1904.0,1778.0,12216653.0,
1873.0,1584.0,1899.0,1772.0,12216656.0,
1871.0,1583.0,1896.0,1765.0,12216660.0,
1871.0,1584.0,1893.0,1758.0,12216664.0,
1873.0,1583.0,1890.0,1751.0,12216667.0,
1872.0,1583.0,1887.0,1747.0,12216671.0,
1870.0,1582.0,1883.0,1738.0,12216675.0,
1871.0,1588.0,1880.0,1732.0,12216678.0,
1871.0,1582.0,1876.0,1725.0,12216682.0,
1871.0,1583.0,1874.0,1719.0,12216685.0,
1870.0,1583.0,1874.0,1716.0,12216689.0,
1870.0,1583.0,1873.0,1715.0,12216693.0,
1869.0,1582.0,1870.0,1712.0,12216696.0,
1869.0,1582.0,1871.0,1711.0,12216700.0,
1868.0,1580.0,1871.0,1711.0,12216704.0,
1869.0,1581.0,1871.0,1707.0,12216707.0,
1869.0,1581.0,1869.0,1704.0,12216711.0,
1868.0,1582.0,1871.0,1702.0,12216715.0,
1868.0,1582.0,1869.0,1700.0,12216718.0,
1866.0,1581.0,1868.0,1699.0,12216722.0,
1867.0,1580.0,1868.0,1694.0,12216725.0,
1867.0,1582.0,1868.0,1695.0,12216729.0,
1867.0,1581.0,1867.0,1694.0,12216733.0,
1866.0,1580.0,1865.0,1698.0,12216736.0,
1866.0,1582.0,1864.0,1697.0,12216740.0,
1866.0,1578.0,1862.0,1695.0,12216744.0,
1865.0,1581.0,1860.0,1692.0,12216747.0,
1864.0,1580.0,1865.0,1693.0,12216751.0,
1865.0,1579.0,1866.0,1690.0,12216754.0,
1867.0,1581.0,1860.0,1690.0,12216758.0,
1865.0,1580.0,1857.0,1685.0,12216762.0,
1864.0,1581.0,1855.0,1683.0,12216765.0,
1863.0,1580.0,1853.0,1682.0,12216769.0,
1864.0,1580.0,1851.0,1676.0,12216773.0,
1863.0,1580.0,1848.0,1674.0,12216776.0,
1862.0,1576.0,1849.0,1674.0,12216780.0,
1862.0,1579.0,1848.0,1673.0,12216784.0,
1862.0,1579.0,1845.0,1672.0,12216787.0,
1862.0,1578.0,1846.0,1672.0,12216791.0,
1862.0,1579.0,1845.0,1673.0,12216794.0,
1862.0,1578.0,1845.0,1670.0,12216798.0,
1861.0,1580.0,1849.0,1673.0,12216802.0,
1856.0,1581.0,1848.0,1671.0,12216805.0,
1859.0,1577.0,1851.0,1676.0,12216809.0,
1860.0,1578.0,1853.0,1672.0,12216813.0,
1860.0,1578.0,1853.0,1673.0,12216816.0,
1860.0,1580.0,1853.0,1671.0,12216820.0,
1854.0,1580.0,1852.0,1671.0,12216824.0,
1859.0,1578.0,1854.0,1666.0,12216827.0,
1859.0,1579.0,1854.0,1666.0,12216831.0,
1859.0,1579.0,1858.0,1663.0,12216834.0,
1859.0,1577.0,1860.0,1660.0,12216838.0,
1859.0,1578.0,1858.0,1661.0,12216842.0,
1859.0,1578.0,1855.0,1660.0,12216845.0,
1858.0,1576.0,1857.0,1662.0,12216849.0,
1858.0,1578.0,1860.0,1662.0,12216853.0,
1858.0,1576.0,1861.0,1660.0,12216856.0,
1858.0,1577.0,1864.0,1659.0,12216860.0,
1861.0,1578.0,1865.0,1661.0,12216864.0,
1857.0,1578.0,1864.0,1663.0,12216867.0,
1858.0,1579.0,1865.0,1665.0,12216871.0,
1857.0,1579.0,1866.0,1661.0,12216874.0,
1857.0,1578.0,1867.0,1663.0,12216878.0,
1857.0,1578.0,1863.0,1665.0,12216882.0,
1857.0,1578.0,1865.0,1663.0,12216885.0,
1855.0,1580.0,1862.0,1665.0,12216889.0,
1856.0,1578.0,1861.0,1663.0,12216893.0,
1858.0,1576.0,1862.0,1662.0,12216896.0,
1856.0,1576.0,1863.0,1658.0,12216900.0,
1856.0,1578.0,1862.0,1657.0,12216904.0,
1856.0,1575.0,1863.0,1654.0,12216907.0,
1855.0,1577.0,1864.0,1654.0,12216911.0,
1855.0,1577.0,1863.0,1641.0,12216914.0,
1856.0,1577.0,1862.0,1648.0,12216918.0,
1855.0,1575.0,1861.0,1643.0,12216922.0,
1854.0,1577.0,1861.0,1639.0,12216925.0,
1855.0,1577.0,1860.0,1635.0,12216929.0,
1854.0,1578.0,1857.0,1634.0,12216933.0,
1853.0,1575.0,1855.0,1629.0,12216936.0,
1852.0,1577.0,1857.0,1633.0,12216940.0,
1854.0,1578.0,1852.0,1629.0,12216943.0,
1854.0,1578.0,1851.0,1633.0,12216947.0,
1854.0,1577.0,1850.0,1638.0,12216951.0,
1853.0,1577.0,1846.0,1641.0,12216954.0,
1853.0,1576.0,1845.0,1645.0,12216958.0,
1853.0,1574.0,1843.0,1652.0,12216962.0,
1852.0,1577.0,1845.0,1659.0,12216965.0,
