EDA,Resp,PPG Finger,PPG Ear,arduino_ts,event_code
2350.0,981.0,538.0,1928.0,377443.0,
2349.0,981.0,534.0,1928.0,377447.0,
2348.0,981.0,526.0,1928.0,377451.0,
2349.0,980.0,521.0,1930.0,377455.0,
2349.0,979.0,513.0,1930.0,377459.0,
2348.0,980.0,507.0,1932.0,377463.0,
2348.0,979.0,497.0,1935.0,377467.0,
2348.0,979.0,485.0,1943.0,377471.0,
2350.0,980.0,476.0,1945.0,377475.0,
2349.0,980.0,467.0,1959.0,377479.0,
2349.0,980.0,455.0,1969.0,377483.0,
2349.0,979.0,443.0,1978.0,377487.0,
2349.0,981.0,432.0,1995.0,377491.0,
2350.0,979.0,422.0,2015.0,377495.0,
2349.0,979.0,411.0,2035.0,377499.0,
2349.0,980.0,402.0,2058.0,377503.0,
2350.0,980.0,391.0,2086.0,377507.0,
2350.0,981.0,385.0,2111.0,377511.0,
2350.0,981.0,384.0,2138.0,377515.0,
2349.0,981.0,383.0,2164.0,377519.0,
2349.0,979.0,391.0,2195.0,377523.0,
2349.0,979.0,401.0,2225.0,377527.0,
2350.0,980.0,423.0,2255.0,377531.0,
2350.0,981.0,454.0,2286.0,377535.0,
2349.0,978.0,498.0,2314.0,377539.0,
2349.0,980.0,558.0,2339.0,377543.0,
2349.0,979.0,629.0,2361.0,377547.0,
2348.0,979.0,721.0,2389.0,377551.0,
2351.0,979.0,832.0,2404.0,377555.0,
2349.0,980.0,967.0,2425.0,377559.0,
2350.0,980.0,1121.0,2441.0,377563.0,
2350.0,979.0,1296.0,2453.0,377567.0,
2351.0,979.0,1495.0,2467.0,377571.0,
2350.0,980.0,1719.0,2475.0,377575.0,
2351.0,980.0,1958.0,2481.0,377579.0,
2350.0,980.0,2221.0,2485.0,377583.0,
2350.0,980.0,2501.0,2487.0,377587.0,
2350.0,979.0,2795.0,2490.0,377591.0,
2349.0,980.0,3098.0,2488.0,377595.0,
2349.0,980.0,3408.0,2485.0,377599.0,
2350.0,980.0,3724.0,2480.0,377603.0,
2350.0,981.0,3918.0,2475.0,377607.0,
2350.0,979.0,3917.0,2469.0,377611.0,
2350.0,980.0,3918.0,2462.0,377615.0,
2350.0,981.0,3918.0,2455.0,377619.0,
2349.0,979.0,3917.0,2442.0,377623.0,
2351.0,980.0,3918.0,2435.0,377627.0,
2350.0,980.0,3918.0,2418.0,377631.0,
2349.0,980.0,3916.0,2406.0,377635.0,
2349.0,980.0,3918.0,2394.0,377639.0,
2351.0,980.0,3918.0,2377.0,377643.0,
2350.0,981.0,3919.0,2359.0,377647.0,
2350.0,981.0,3920.0,2346.0,377651.0,
2350.0,981.0,3919.0,2327.0,377655.0,
2350.0,981.0,3919.0,2309.0,377659.0,
2351.0,981.0,3920.0,2296.0,377663.0,
2350.0,982.0,3919.0,2275.0,377667.0,
2350.0,981.0,3919.0,2258.0,377671.0,
2349.0,981.0,3919.0,2242.0,377675.0,
2350.0,982.0,3919.0,2222.0,377679.0,
2349.0,981.0,3919.0,2201.0,377683.0,
2350.0,982.0,3919.0,2180.0,377687.0,
2348.0,979.0,3917.0,2157.0,377691.0,
2349.0,981.0,3918.0,2134.0,377695.0,
2350.0,981.0,3919.0,2114.0,377699.0,
2349.0,981.0,3919.0,2091.0,377703.0,
2350.0,981.0,3918.0,2070.0,377707.0,
2349.0,981.0,3919.0,2055.0,377711.0,
2350.0,981.0,3918.0,2036.0,377715.0,
2350.0,981.0,3918.0,2018.0,377719.0,
2349.0,980.0,3916.0,2003.0,377723.0,
2350.0,981.0,3920.0,1992.0,377727.0,
2349.0,980.0,3919.0,1982.0,377731.0,
2350.0,982.0,3920.0,1972.0,377735.0,
2349.0,981.0,3919.0,1965.0,377739.0,
2351.0,982.0,3919.0,1960.0,377743.0,
2350.0,981.0,3919.0,1954.0,377747.0,
2350.0,981.0,3918.0,1946.0,377751.0,
2350.0,982.0,3919.0,1943.0,377755.0,
2349.0,981.0,3920.0,1938.0,377759.0,
2349.0,982.0,3920.0,1934.0,377763.0,
2349.0,982.0,3919.0,1931.0,377767.0,
2349.0,981.0,3917.0,1932.0,377771.0,
2350.0,983.0,3920.0,1929.0,377775.0,
2350.0,982.0,3919.0,1930.0,377779.0,
2350.0,981.0,3917.0,1929.0,377783.0,
2350.0,981.0,3918.0,1931.0,377787.0,
2349.0,982.0,3919.0,1933.0,377791.0,
2349.0,981.0,3917.0,1933.0,377795.0,
2349.0,982.0,3919.0,1936.0,377799.0,
2350.0,982.0,3919.0,1937.0,377803.0,
2350.0,982.0,3920.0,1939.0,377807.0,
2350.0,982.0,3918.0,1941.0,377811.0,
2349.0,982.0,3919.0,1942.0,377815.0,
2350.0,982.0,3918.0,1941.0,377819.0,
2349.0,982.0,3919.0,1944.0,377823.0,
2350.0,982.0,3920.0,1945.0,377827.0,
2350.0,982.0,3919.0,1945.0,377831.0,
2348.0,981.0,3917.0,1949.0,377835.0,
2349.0,981.0,3919.0,1947.0,377839.0,
2348.0,982.0,3919.0,1951.0,377843.0,
2348.0,981.0,3917.0,1952.0,377847.0,
2349.0,980.0,3918.0,1947.0,377851.0,
2348.0,980.0,3918.0,1954.0,377855.0,
2350.0,980.0,3917.0,1953.0,377859.0,
2350.0,979.0,3916.0,1952.0,377863.0,
2349.0,980.0,3918.0,1949.0,377867.0,
2349.0,981.0,3776.0,1949.0,377871.0,
2350.0,980.0,3537.0,1950.0,377875.0,
2350.0,980.0,3305.0,1952.0,377879.0,
2350.0,980.0,3073.0,1948.0,377883.0,
2349.0,980.0,2848.0,1948.0,377887.0,
2349.0,979.0,2634.0,1947.0,377891.0,
2350.0,980.0,2430.0,1942.0,377895.0,
2350.0,980.0,2235.0,1943.0,377899.0,
2350.0,980.0,2053.0,1940.0,377903.0,
2349.0,980.0,1881.0,1933.0,377907.0,
2349.0,979.0,1718.0,1932.0,377911.0,
2349.0,979.0,1568.0,1930.0,377915.0,
2349.0,979.0,1426.0,1928.0,377919.0,
2349.0,979.0,1297.0,1925.0,377923.0,
2350.0,979.0,1178.0,1919.0,377927.0,
2349.0,978.0,1069.0,1916.0,377931.0,
2349.0,979.0,973.0,1918.0,377935.0,
2349.0,980.0,885.0,1915.0,377939.0,
2349.0,978.0,805.0,1912.0,377943.0,
2349.0,979.0,734.0,1915.0,377947.0,
2349.0,978.0,670.0,1915.0,377951.0,
2350.0,979.0,617.0,1914.0,377955.0,
2349.0,978.0,564.0,1913.0,377959.0,
2350.0,978.0,523.0,1914.0,377963.0,
2349.0,978.0,484.0,1916.0,377967.0,
2350.0,979.0,453.0,1915.0,377971.0,
2349.0,979.0,426.0,1916.0,377975.0,
2347.0,977.0,401.0,1920.0,377979.0,
2348.0,978.0,387.0,1920.0,377983.0,
2349.0,978.0,377.0,1924.0,377987.0,
2349.0,977.0,368.0,1922.0,377991.0,
2349.0,979.0,364.0,1924.0,377995.0,
2349.0,976.0,363.0,1923.0,377999.0,
2349.0,976.0,364.0,1922.0,378003.0,
2348.0,976.0,366.0,1924.0,378007.0,
2349.0,977.0,371.0,1921.0,378011.0,
2350.0,977.0,377.0,1923.0,378015.0,
2350.0,978.0,385.0,1922.0,378019.0,
2350.0,977.0,390.0,1923.0,378023.0,
2349.0,978.0,400.0,1923.0,378027.0,
2350.0,977.0,405.0,1928.0,378031.0,
2349.0,976.0,410.0,1925.0,378035.0,
2350.0,976.0,416.0,1925.0,378039.0,
2349.0,978.0,424.0,1928.0,378043.0,
2349.0,978.0,429.0,1929.0,378047.0,
2350.0,979.0,437.0,1929.0,378051.0,
2348.0,977.0,440.0,1932.0,378055.0,
2349.0,978.0,447.0,1935.0,378059.0,
2348.0,977.0,447.0,1937.0,378063.0,
2349.0,976.0,453.0,1935.0,378067.0,
2349.0,977.0,457.0,1939.0,378071.0,
2348.0,976.0,461.0,1943.0,378075.0,
2349.0,976.0,463.0,1949.0,378079.0,
2350.0,977.0,465.0,1946.0,378083.0,
2350.0,977.0,465.0,1946.0,378087.0,
2349.0,977.0,469.0,1944.0,378091.0,
2349.0,977.0,470.0,1943.0,378095.0,
2349.0,976.0,473.0,1941.0,378099.0,
2349.0,977.0,476.0,1944.0,378103.0,
2349.0,977.0,479.0,1942.0,378107.0,
2350.0,978.0,484.0,1942.0,378111.0,
2350.0,979.0,487.0,1942.0,378115.0,
2349.0,978.0,492.0,1938.0,378119.0,
2350.0,977.0,493.0,1935.0,378123.0,
2347.0,976.0,496.0,1937.0,378127.0,
2350.0,976.0,502.0,1931.0,378131.0,
2348.0,977.0,509.0,1935.0,378135.0,
2348.0,976.0,513.0,1934.0,378139.0,
2348.0,975.0,519.0,1936.0,378143.0,
2349.0,977.0,526.0,1935.0,378147.0,
2349.0,976.0,533.0,1937.0,378151.0,
2348.0,976.0,539.0,1938.0,378155.0,
2349.0,975.0,546.0,1937.0,378159.0,
2350.0,976.0,553.0,1936.0,378163.0,
2349.0,976.0,559.0,1931.0,378167.0,
2349.0,975.0,564.0,1929.0,378171.0,
2350.0,975.0,569.0,1927.0,378175.0,
2348.0,975.0,570.0,1929.0,378179.0,
2349.0,976.0,572.0,1927.0,378183.0,
2349.0,975.0,574.0,1926.0,378187.0,
2350.0,975.0,576.0,1928.0,378191.0,
2350.0,975.0,578.0,1932.0,378195.0,
2349.0,976.0,576.0,1932.0,378199.0,
2349.0,976.0,576.0,1939.0,378203.0,
2349.0,977.0,572.0,1948.0,378207.0,
2348.0,975.0,571.0,1957.0,378211.0,
2349.0,976.0,568.0,1965.0,378215.0,
2348.0,974.0,560.0,1975.0,378219.0,
2348.0,976.0,559.0,1988.0,378223.0,
2348.0,974.0,553.0,2006.0,378227.0,
2348.0,976.0,547.0,2025.0,378231.0,
2349.0,975.0,542.0,2047.0,378235.0,
2349.0,973.0,537.0,2070.0,378239.0,
2349.0,975.0,538.0,2098.0,378243.0,
2349.0,974.0,533.0,2124.0,378247.0,
2349.0,975.0,538.0,2156.0,378251.0,
2350.0,974.0,543.0,2184.0,378255.0,
2350.0,975.0,554.0,2215.0,378259.0,
2349.0,975.0,573.0,2239.0,378263.0,
2349.0,974.0,601.0,2270.0,378267.0,
2350.0,974.0,637.0,2296.0,378271.0,
2349.0,974.0,683.0,2321.0,378275.0,
2349.0,974.0,748.0,2346.0,378279.0,
2349.0,974.0,823.0,2370.0,378283.0,
2349.0,975.0,915.0,2392.0,378287.0,
2349.0,974.0,1023.0,2412.0,378291.0,
2350.0,975.0,1152.0,2429.0,378295.0,
2349.0,975.0,1295.0,2444.0,378299.0,
2350.0,973.0,1459.0,2453.0,378303.0,
2350.0,975.0,1640.0,2462.0,378307.0,
2348.0,974.0,1837.0,2467.0,378311.0,
2350.0,974.0,2051.0,2470.0,378315.0,
2349.0,974.0,2279.0,2474.0,378319.0,
2349.0,973.0,2519.0,2474.0,378323.0,
2349.0,973.0,2776.0,2473.0,378327.0,
2349.0,973.0,3036.0,2474.0,378331.0,
2350.0,974.0,3301.0,2470.0,378335.0,
2349.0,975.0,3572.0,2467.0,378339.0,
2349.0,974.0,3840.0,2462.0,378343.0,
2350.0,975.0,3919.0,2458.0,378347.0,
2350.0,973.0,3918.0,2450.0,378351.0,
2349.0,973.0,3918.0,2442.0,378355.0,
2349.0,974.0,3918.0,2432.0,378359.0,
2350.0,974.0,3918.0,2425.0,378363.0,
2349.0,974.0,3918.0,2414.0,378367.0,
2349.0,974.0,3917.0,2402.0,378371.0,
2349.0,971.0,3917.0,2387.0,378375.0,
2350.0,974.0,3917.0,2375.0,378379.0,
2350.0,975.0,3918.0,2361.0,378383.0,
2349.0,975.0,3919.0,2346.0,378387.0,
2350.0,975.0,3918.0,2329.0,378391.0,
2350.0,975.0,3918.0,2315.0,378395.0,
2351.0,974.0,3919.0,2299.0,378399.0,
2350.0,974.0,3918.0,2279.0,378403.0,
2350.0,973.0,3918.0,2262.0,378407.0,
2351.0,972.0,3916.0,2242.0,378411.0,
2350.0,974.0,3918.0,2222.0,378415.0,
2350.0,975.0,3917.0,2205.0,378419.0,
2350.0,975.0,3919.0,2184.0,378423.0,
2350.0,974.0,3919.0,2165.0,378427.0,
2349.0,974.0,3919.0,2143.0,378431.0,
2350.0,973.0,3918.0,2121.0,378435.0,
2349.0,975.0,3918.0,2103.0,378439.0,
2350.0,976.0,3919.0,2082.0,378443.0,
2349.0,974.0,3919.0,2065.0,378447.0,
2349.0,975.0,3920.0,2045.0,378451.0,
2349.0,973.0,3918.0,2030.0,378455.0,
2349.0,972.0,3916.0,2012.0,378459.0,
2349.0,974.0,3919.0,1997.0,378463.0,
2349.0,973.0,3918.0,1988.0,378467.0,
2350.0,973.0,3918.0,1975.0,378471.0,
2350.0,975.0,3918.0,1966.0,378475.0,
2350.0,975.0,3920.0,1958.0,378479.0,
2349.0,973.0,3918.0,1952.0,378483.0,
2350.0,973.0,3917.0,1945.0,378487.0,
2349.0,974.0,3918.0,1939.0,378491.0,
2350.0,974.0,3919.0,1941.0,378495.0,
2351.0,973.0,3918.0,1938.0,378499.0,
2350.0,973.0,3917.0,1934.0,378503.0,
2350.0,974.0,3919.0,1936.0,378507.0,
2350.0,973.0,3918.0,1932.0,378511.0,
2350.0,972.0,3918.0,1933.0,378515.0,
2350.0,973.0,3917.0,1929.0,378519.0,
2350.0,974.0,3918.0,1931.0,378523.0,
2349.0,972.0,3917.0,1933.0,378527.0,
2350.0,973.0,3919.0,1933.0,378531.0,
2348.0,971.0,3917.0,1934.0,378535.0,
2350.0,972.0,3917.0,1932.0,378539.0,
2349.0,972.0,3919.0,1932.0,378543.0,
2350.0,973.0,3918.0,1936.0,378547.0,
2350.0,972.0,3917.0,1935.0,378551.0,
2350.0,972.0,3917.0,1937.0,378555.0,
2350.0,972.0,3917.0,1940.0,378559.0,
2350.0,970.0,3916.0,1942.0,378563.0,
2350.0,972.0,3916.0,1941.0,378567.0,
2349.0,973.0,3919.0,1942.0,378571.0,
2351.0,973.0,3852.0,1945.0,378575.0,
2350.0,974.0,3598.0,1942.0,378579.0,
2349.0,972.0,3359.0,1944.0,378583.0,
2349.0,974.0,3133.0,1946.0,378587.0,
2350.0,973.0,2905.0,1945.0,378591.0,
2350.0,974.0,2689.0,1947.0,378595.0,
2349.0,972.0,2483.0,1948.0,378599.0,
2349.0,973.0,2291.0,1947.0,378603.0,
2350.0,974.0,2109.0,1948.0,378607.0,
2348.0,972.0,1936.0,1945.0,378611.0,
2349.0,974.0,1778.0,1946.0,378615.0,
2350.0,973.0,1633.0,1942.0,378619.0,
2350.0,973.0,1496.0,1940.0,378623.0,
2349.0,974.0,1375.0,1942.0,378627.0,
2349.0,973.0,1266.0,1939.0,378631.0,
2350.0,972.0,1168.0,1940.0,378635.0,
2348.0,971.0,1077.0,1935.0,378639.0,
2349.0,972.0,1001.0,1929.0,378643.0,
2349.0,972.0,933.0,1930.0,378647.0,
2350.0,973.0,872.0,1926.0,378651.0,
2350.0,973.0,820.0,1923.0,378655.0,
2350.0,973.0,775.0,1921.0,378659.0,
2350.0,973.0,737.0,1919.0,378663.0,
2349.0,972.0,706.0,1918.0,378667.0,
2350.0,974.0,681.0,1916.0,378671.0,
2350.0,973.0,656.0,1914.0,378675.0,
2349.0,973.0,639.0,1916.0,378679.0,
2349.0,975.0,632.0,1913.0,378683.0,
2348.0,973.0,622.0,1914.0,378687.0,
2350.0,974.0,619.0,1910.0,378691.0,
2349.0,974.0,620.0,1915.0,378695.0,
2349.0,973.0,618.0,1911.0,378699.0,
2350.0,975.0,627.0,1911.0,378703.0,
2350.0,974.0,624.0,1907.0,378707.0,
2350.0,975.0,629.0,1911.0,378711.0,
2348.0,975.0,631.0,1909.0,378715.0,
2350.0,976.0,639.0,1907.0,378719.0,
2351.0,976.0,644.0,1907.0,378723.0,
2350.0,976.0,643.0,1903.0,378727.0,
2350.0,977.0,648.0,1902.0,378731.0,
2350.0,976.0,652.0,1902.0,378735.0,
2349.0,977.0,652.0,1902.0,378739.0,
2350.0,976.0,656.0,1901.0,378743.0,
2350.0,975.0,657.0,1900.0,378747.0,
2349.0,976.0,657.0,1904.0,378751.0,
2349.0,975.0,658.0,1905.0,378755.0,
2350.0,975.0,655.0,1907.0,378759.0,
2348.0,976.0,653.0,1906.0,378763.0,
2350.0,976.0,652.0,1908.0,378767.0,
2349.0,976.0,649.0,1904.0,378771.0,
2350.0,977.0,648.0,1907.0,378775.0,
2350.0,977.0,646.0,1906.0,378779.0,
2348.0,978.0,639.0,1906.0,378783.0,
2350.0,977.0,632.0,1903.0,378787.0,
2350.0,977.0,628.0,1904.0,378791.0,
2351.0,977.0,622.0,1903.0,378795.0,
2350.0,978.0,616.0,1902.0,378799.0,
2349.0,979.0,609.0,1900.0,378803.0,
2350.0,978.0,606.0,1904.0,378807.0,
2350.0,980.0,601.0,1907.0,378811.0,
2349.0,979.0,597.0,1907.0,378815.0,
2350.0,977.0,591.0,1908.0,378819.0,
2350.0,977.0,586.0,1910.0,378823.0,
2349.0,979.0,582.0,1909.0,378827.0,
2349.0,978.0,577.0,1913.0,378831.0,
2350.0,978.0,572.0,1911.0,378835.0,
2350.0,980.0,569.0,1912.0,378839.0,
2349.0,979.0,568.0,1911.0,378843.0,
2349.0,979.0,567.0,1917.0,378847.0,
2350.0,979.0,564.0,1919.0,378851.0,
2351.0,980.0,562.0,1921.0,378855.0,
2350.0,980.0,562.0,1924.0,378859.0,
2350.0,978.0,561.0,1928.0,378863.0,
2350.0,978.0,557.0,1931.0,378867.0,
2350.0,980.0,557.0,1935.0,378871.0,
2350.0,979.0,556.0,1936.0,378875.0,
2350.0,978.0,556.0,1937.0,378879.0,
2351.0,980.0,558.0,1942.0,378883.0,
2349.0,981.0,561.0,1944.0,378887.0,
2348.0,980.0,564.0,1945.0,378891.0,
2350.0,980.0,566.0,1946.0,378895.0,
2350.0,980.0,573.0,1946.0,378899.0,
2348.0,979.0,577.0,1947.0,378903.0,
2349.0,981.0,585.0,1949.0,378907.0,
2349.0,980.0,588.0,1952.0,378911.0,
2351.0,980.0,592.0,1954.0,378915.0,
2350.0,980.0,600.0,1955.0,378919.0,
2348.0,981.0,602.0,1959.0,378923.0,
2350.0,980.0,610.0,1958.0,378927.0,
2350.0,980.0,613.0,1961.0,378931.0,
2350.0,981.0,617.0,1964.0,378935.0,
2350.0,980.0,622.0,1967.0,378939.0,
2349.0,980.0,624.0,1971.0,378943.0,
2350.0,981.0,625.0,1972.0,378947.0,
2350.0,982.0,626.0,1977.0,378951.0,
2350.0,981.0,624.0,1983.0,378955.0,
2350.0,982.0,621.0,1995.0,378959.0,
2349.0,981.0,619.0,2005.0,378963.0,
2350.0,981.0,617.0,2019.0,378967.0,
2349.0,982.0,615.0,2036.0,378971.0,
2350.0,981.0,607.0,2055.0,378975.0,
2350.0,983.0,602.0,2078.0,378979.0,
2349.0,983.0,599.0,2105.0,378983.0,
2350.0,984.0,595.0,2127.0,378987.0,
2349.0,982.0,594.0,2159.0,378991.0,
2349.0,984.0,598.0,2186.0,378995.0,
2350.0,984.0,605.0,2215.0,378999.0,
2351.0,983.0,614.0,2246.0,379003.0,
2350.0,982.0,633.0,2272.0,379007.0,
2350.0,982.0,663.0,2302.0,379011.0,
2351.0,983.0,702.0,2327.0,379015.0,
2350.0,984.0,750.0,2352.0,379019.0,
2349.0,984.0,812.0,2380.0,379023.0,
2350.0,984.0,893.0,2400.0,379027.0,
2351.0,985.0,991.0,2425.0,379031.0,
2350.0,984.0,1104.0,2439.0,379035.0,
2350.0,985.0,1239.0,2458.0,379039.0,
2350.0,986.0,1399.0,2472.0,379043.0,
2350.0,985.0,1572.0,2486.0,379047.0,
2350.0,985.0,1772.0,2497.0,379051.0,
2350.0,985.0,1985.0,2502.0,379055.0,
2350.0,985.0,2220.0,2508.0,379059.0,
2349.0,983.0,2467.0,2514.0,379063.0,
2349.0,987.0,2735.0,2514.0,379067.0,
2349.0,985.0,3012.0,2520.0,379071.0,
2350.0,986.0,3299.0,2518.0,379075.0,
2351.0,985.0,3595.0,2516.0,379079.0,
2350.0,986.0,3887.0,2514.0,379083.0,
2351.0,986.0,3918.0,2512.0,379087.0,
2351.0,985.0,3917.0,2506.0,379091.0,
2351.0,985.0,3919.0,2498.0,379095.0,
2351.0,986.0,3917.0,2491.0,379099.0,
2351.0,985.0,3917.0,2482.0,379103.0,
2350.0,986.0,3918.0,2474.0,379107.0,
2350.0,985.0,3919.0,2462.0,379111.0,
2351.0,985.0,3918.0,2453.0,379115.0,
2350.0,986.0,3918.0,2444.0,379119.0,
2350.0,987.0,3919.0,2435.0,379123.0,
2349.0,986.0,3918.0,2425.0,379127.0,
2350.0,988.0,3919.0,2414.0,379131.0,
2350.0,987.0,3919.0,2402.0,379135.0,
2351.0,987.0,3919.0,2392.0,379139.0,
2349.0,985.0,3917.0,2377.0,379143.0,
2349.0,986.0,3917.0,2364.0,379147.0,
2349.0,986.0,3917.0,2350.0,379151.0,
2350.0,988.0,3917.0,2335.0,379155.0,
2351.0,987.0,3919.0,2319.0,379159.0,
2350.0,987.0,3917.0,2302.0,379163.0,
2350.0,987.0,3918.0,2286.0,379167.0,
2350.0,987.0,3919.0,2267.0,379171.0,
2351.0,988.0,3919.0,2246.0,379175.0,
2351.0,987.0,3919.0,2224.0,379179.0,
2350.0,987.0,3919.0,2204.0,379183.0,
2350.0,987.0,3919.0,2178.0,379187.0,
2350.0,987.0,3920.0,2157.0,379191.0,
2351.0,986.0,3918.0,2136.0,379195.0,
2350.0,985.0,3919.0,2113.0,379199.0,
2350.0,987.0,3919.0,2094.0,379203.0,
2351.0,988.0,3918.0,2077.0,379207.0,
2351.0,987.0,3918.0,2053.0,379211.0,
2350.0,988.0,3920.0,2039.0,379215.0,
2350.0,987.0,3919.0,2023.0,379219.0,
2351.0,988.0,3919.0,2012.0,379223.0,
2349.0,988.0,3918.0,1999.0,379227.0,
2350.0,988.0,3919.0,1989.0,379231.0,
2350.0,988.0,3918.0,1980.0,379235.0,
2351.0,988.0,3919.0,1972.0,379239.0,
2350.0,989.0,3920.0,1966.0,379243.0,
2349.0,988.0,3916.0,1960.0,379247.0,
2350.0,990.0,3919.0,1954.0,379251.0,
2350.0,988.0,3918.0,1949.0,379255.0,
2349.0,988.0,3916.0,1947.0,379259.0,
2350.0,989.0,3918.0,1944.0,379263.0,
2349.0,987.0,3918.0,1943.0,379267.0,
2350.0,988.0,3919.0,1940.0,379271.0,
2349.0,987.0,3918.0,1942.0,379275.0,
2350.0,987.0,3918.0,1935.0,379279.0,
2350.0,988.0,3917.0,1933.0,379283.0,
2349.0,988.0,3918.0,1934.0,379287.0,
2350.0,988.0,3918.0,1931.0,379291.0,
2350.0,988.0,3919.0,1930.0,379295.0,
2350.0,988.0,3918.0,1931.0,379299.0,
2350.0,988.0,3920.0,1930.0,379303.0,
2350.0,989.0,3919.0,1930.0,379307.0,
2350.0,987.0,3918.0,1927.0,379311.0,
2350.0,988.0,3919.0,1929.0,379315.0,
2350.0,988.0,3918.0,1930.0,379319.0,
2350.0,988.0,3917.0,1928.0,379323.0,
2350.0,989.0,3918.0,1933.0,379327.0,
2349.0,987.0,3918.0,1929.0,379331.0,
2349.0,986.0,3918.0,1931.0,379335.0,
2350.0,988.0,3920.0,1931.0,379339.0,
2349.0,989.0,3918.0,1928.0,379343.0,
2349.0,989.0,3918.0,1927.0,379347.0,
2350.0,989.0,3919.0,1923.0,379351.0,
2350.0,989.0,3918.0,1921.0,379355.0,
2350.0,990.0,3917.0,1915.0,379359.0,
2349.0,989.0,3920.0,1920.0,379363.0,
2349.0,990.0,3918.0,1918.0,379367.0,
2349.0,990.0,3918.0,1915.0,379371.0,
2350.0,989.0,3917.0,1912.0,379375.0,
2351.0,989.0,3916.0,1908.0,379379.0,
2350.0,990.0,3917.0,1902.0,379383.0,
2350.0,991.0,3919.0,1901.0,379387.0,
2350.0,990.0,3798.0,1897.0,379391.0,
2350.0,990.0,3562.0,1891.0,379395.0,
2350.0,990.0,3325.0,1884.0,379399.0,
2350.0,992.0,3089.0,1884.0,379403.0,
2349.0,990.0,2857.0,1875.0,379407.0,
2349.0,990.0,2638.0,1874.0,379411.0,
2349.0,989.0,2421.0,1872.0,379415.0,
2350.0,990.0,2218.0,1874.0,379419.0,
2349.0,990.0,2022.0,1874.0,379423.0,
2349.0,990.0,1835.0,1868.0,379427.0,
2349.0,991.0,1660.0,1867.0,379431.0,
2350.0,990.0,1497.0,1865.0,379435.0,
2349.0,990.0,1342.0,1864.0,379439.0,
2350.0,991.0,1203.0,1863.0,379443.0,
2350.0,990.0,1068.0,1858.0,379447.0,
2349.0,991.0,952.0,1860.0,379451.0,
2349.0,990.0,841.0,1859.0,379455.0,
2349.0,990.0,742.0,1857.0,379459.0,
2349.0,990.0,652.0,1853.0,379463.0,
2349.0,989.0,572.0,1853.0,379467.0,
2349.0,989.0,500.0,1852.0,379471.0,
2349.0,988.0,436.0,1853.0,379475.0,
2349.0,987.0,379.0,1854.0,379479.0,
2349.0,989.0,332.0,1852.0,379483.0,
2349.0,989.0,290.0,1851.0,379487.0,
2350.0,989.0,254.0,1848.0,379491.0,
2349.0,989.0,222.0,1846.0,379495.0,
2350.0,989.0,202.0,1846.0,379499.0,
2349.0,988.0,185.0,1845.0,379503.0,
2349.0,988.0,174.0,1843.0,379507.0,
2349.0,989.0,167.0,1842.0,379511.0,
2349.0,989.0,163.0,1844.0,379515.0,
2349.0,988.0,160.0,1844.0,379519.0,
2349.0,987.0,164.0,1844.0,379523.0,
2349.0,988.0,169.0,1842.0,379527.0,
2350.0,989.0,177.0,1845.0,379531.0,
2350.0,987.0,186.0,1845.0,379535.0,
2349.0,990.0,200.0,1847.0,379539.0,
2349.0,989.0,215.0,1852.0,379543.0,
2349.0,990.0,228.0,1854.0,379547.0,
2350.0,990.0,247.0,1854.0,379551.0,
2350.0,991.0,263.0,1860.0,379555.0,
2350.0,991.0,281.0,1860.0,379559.0,
2349.0,991.0,296.0,1862.0,379563.0,
2349.0,990.0,313.0,1864.0,379567.0,
2348.0,990.0,329.0,1864.0,379571.0,
2350.0,989.0,343.0,1865.0,379575.0,
2348.0,989.0,358.0,1864.0,379579.0,
2350.0,989.0,373.0,1866.0,379583.0,
2348.0,989.0,391.0,1868.0,379587.0,
2350.0,989.0,404.0,1864.0,379591.0,
2350.0,989.0,420.0,1869.0,379595.0,
2349.0,989.0,432.0,1866.0,379599.0,
2350.0,990.0,446.0,1866.0,379603.0,
2349.0,989.0,458.0,1865.0,379607.0,
2349.0,988.0,471.0,1867.0,379611.0,
2349.0,990.0,482.0,1869.0,379615.0,
2348.0,988.0,492.0,1870.0,379619.0,
2349.0,988.0,501.0,1873.0,379623.0,
2349.0,989.0,510.0,1872.0,379627.0,
2349.0,990.0,520.0,1872.0,379631.0,
2349.0,990.0,528.0,1873.0,379635.0,
2349.0,989.0,537.0,1872.0,379639.0,
2349.0,990.0,550.0,1872.0,379643.0,
2350.0,988.0,558.0,1873.0,379647.0,
2349.0,990.0,570.0,1878.0,379651.0,
2348.0,990.0,579.0,1881.0,379655.0,
2349.0,991.0,590.0,1884.0,379659.0,
2349.0,991.0,597.0,1884.0,379663.0,
2349.0,991.0,608.0,1895.0,379667.0,
2350.0,990.0,614.0,1893.0,379671.0,
2350.0,989.0,624.0,1898.0,379675.0,
2348.0,990.0,630.0,1901.0,379679.0,
2346.0,989.0,637.0,1907.0,379683.0,
2345.0,991.0,645.0,1909.0,379687.0,
2349.0,990.0,650.0,1914.0,379691.0,
2351.0,992.0,658.0,1918.0,379695.0,
2350.0,990.0,663.0,1922.0,379699.0,
2353.0,990.0,667.0,1922.0,379703.0,
2349.0,991.0,674.0,1925.0,379707.0,
2350.0,990.0,677.0,1929.0,379711.0,
2348.0,989.0,681.0,1933.0,379715.0,
2349.0,991.0,682.0,1933.0,379719.0,
2349.0,992.0,683.0,1937.0,379723.0,
2348.0,991.0,681.0,1939.0,379727.0,
2349.0,991.0,679.0,1943.0,379731.0,
2348.0,989.0,673.0,1945.0,379735.0,
2350.0,989.0,673.0,1943.0,379739.0,
2349.0,989.0,667.0,1943.0,379743.0,
2350.0,990.0,665.0,1949.0,379747.0,
2349.0,991.0,662.0,1950.0,379751.0,
2346.0,991.0,658.0,1950.0,379755.0,
2354.0,991.0,654.0,1955.0,379759.0,
2348.0,991.0,651.0,1964.0,379763.0,
2349.0,990.0,648.0,1969.0,379767.0,
2350.0,992.0,644.0,1976.0,379771.0,
2348.0,992.0,639.0,1992.0,379775.0,
2353.0,993.0,636.0,2005.0,379779.0,
2349.0,991.0,635.0,2023.0,379783.0,
2349.0,993.0,634.0,2042.0,379787.0,
2350.0,990.0,632.0,2065.0,379791.0,
2349.0,992.0,631.0,2092.0,379795.0,
2349.0,993.0,631.0,2116.0,379799.0,
2349.0,993.0,632.0,2146.0,379803.0,
2349.0,991.0,639.0,2177.0,379807.0,
2350.0,992.0,653.0,2206.0,379811.0,
2349.0,992.0,672.0,2238.0,379815.0,
2349.0,992.0,696.0,2274.0,379819.0,
2349.0,993.0,735.0,2305.0,379823.0,
2347.0,993.0,787.0,2338.0,379827.0,
2349.0,992.0,850.0,2369.0,379831.0,
2350.0,992.0,932.0,2397.0,379835.0,
2350.0,992.0,1027.0,2426.0,379839.0,
2349.0,991.0,1147.0,2451.0,379843.0,
2350.0,992.0,1285.0,2475.0,379847.0,
2351.0,991.0,1444.0,2496.0,379851.0,
2351.0,992.0,1628.0,2513.0,379855.0,
2350.0,992.0,1833.0,2529.0,379859.0,
2349.0,992.0,2060.0,2545.0,379863.0,
2349.0,991.0,2307.0,2553.0,379867.0,
2350.0,992.0,2579.0,2562.0,379871.0,
2350.0,992.0,2866.0,2568.0,379875.0,
2350.0,991.0,3169.0,2569.0,379879.0,
2349.0,990.0,3488.0,2573.0,379883.0,
2350.0,991.0,3816.0,2571.0,379887.0,
2350.0,991.0,3918.0,2570.0,379891.0,
2351.0,991.0,3919.0,2566.0,379895.0,
2349.0,991.0,3915.0,2561.0,379899.0,
2350.0,990.0,3918.0,2554.0,379903.0,
2350.0,992.0,3918.0,2546.0,379907.0,
2351.0,992.0,3919.0,2536.0,379911.0,
2350.0,991.0,3917.0,2523.0,379915.0,
2351.0,992.0,3919.0,2515.0,379919.0,
2350.0,991.0,3918.0,2503.0,379923.0,
2351.0,991.0,3918.0,2490.0,379927.0,
2351.0,993.0,3918.0,2479.0,379931.0,
2351.0,991.0,3918.0,2466.0,379935.0,
2350.0,991.0,3919.0,2453.0,379939.0,
2350.0,991.0,3920.0,2438.0,379943.0,
2350.0,993.0,3919.0,2424.0,379947.0,
2351.0,992.0,3920.0,2407.0,379951.0,
2351.0,992.0,3919.0,2394.0,379955.0,
2350.0,992.0,3921.0,2377.0,379959.0,
2351.0,991.0,3920.0,2360.0,379963.0,
2351.0,992.0,3919.0,2345.0,379967.0,
2349.0,991.0,3918.0,2328.0,379971.0,
2351.0,990.0,3919.0,2309.0,379975.0,
2350.0,991.0,3919.0,2293.0,379979.0,
2350.0,992.0,3919.0,2272.0,379983.0,
2350.0,991.0,3919.0,2252.0,379987.0,
2350.0,991.0,3919.0,2233.0,379991.0,
2350.0,992.0,3920.0,2206.0,379995.0,
2351.0,990.0,3919.0,2187.0,379999.0,
2350.0,992.0,3920.0,2167.0,380003.0,
2350.0,992.0,3920.0,2142.0,380007.0,
2350.0,991.0,3920.0,2119.0,380011.0,
2350.0,991.0,3920.0,2094.0,380015.0,
2351.0,989.0,3919.0,2076.0,380019.0,
2350.0,992.0,3920.0,2056.0,380023.0,
2350.0,990.0,3918.0,2036.0,380027.0,
2350.0,991.0,3920.0,2018.0,380031.0,
2349.0,991.0,3920.0,2006.0,380035.0,
2350.0,992.0,3921.0,1991.0,380039.0,
2350.0,991.0,3920.0,1979.0,380043.0,
2350.0,991.0,3921.0,1968.0,380047.0,
2350.0,990.0,3920.0,1958.0,380051.0,
2350.0,991.0,3921.0,1952.0,380055.0,
2351.0,991.0,3921.0,1947.0,380059.0,
2349.0,989.0,3918.0,1940.0,380063.0,
2350.0,989.0,3921.0,1934.0,380067.0,
2350.0,989.0,3920.0,1932.0,380071.0,
2351.0,989.0,3919.0,1929.0,380075.0,
2350.0,990.0,3920.0,1928.0,380079.0,
2350.0,989.0,3919.0,1925.0,380083.0,
2350.0,990.0,3920.0,1925.0,380087.0,
2351.0,990.0,3918.0,1922.0,380091.0,
2350.0,991.0,3920.0,1920.0,380095.0,
2351.0,990.0,3919.0,1925.0,380099.0,
2348.0,989.0,3919.0,1924.0,380103.0,
2350.0,990.0,3919.0,1927.0,380107.0,
2350.0,989.0,3918.0,1926.0,380111.0,
2349.0,989.0,3920.0,1926.0,380115.0,
2350.0,989.0,3919.0,1928.0,380119.0,
2350.0,990.0,3920.0,1930.0,380123.0,
2350.0,989.0,3918.0,1929.0,380127.0,
2350.0,989.0,3920.0,1930.0,380131.0,
2350.0,990.0,3918.0,1931.0,380135.0,
2350.0,989.0,3919.0,1933.0,380139.0,
2350.0,989.0,3918.0,1930.0,380143.0,
2349.0,988.0,3917.0,1933.0,380147.0,
2349.0,990.0,3919.0,1935.0,380151.0,
2349.0,989.0,3919.0,1936.0,380155.0,
2350.0,989.0,3917.0,1933.0,380159.0,
2350.0,990.0,3917.0,1931.0,380163.0,
2350.0,990.0,3921.0,1936.0,380167.0,
2350.0,990.0,3919.0,1934.0,380171.0,
2350.0,989.0,3918.0,1931.0,380175.0,
2350.0,988.0,3918.0,1931.0,380179.0,
2350.0,990.0,3918.0,1930.0,380183.0,
2348.0,988.0,3917.0,1931.0,380187.0,
2350.0,990.0,3918.0,1934.0,380191.0,
2349.0,989.0,3918.0,1936.0,380195.0,
2349.0,988.0,3918.0,1935.0,380199.0,
2349.0,988.0,3919.0,1933.0,380203.0,
2349.0,989.0,3919.0,1935.0,380207.0,
2350.0,990.0,3920.0,1932.0,380211.0,
2350.0,989.0,3919.0,1931.0,380215.0,
2350.0,989.0,3919.0,1932.0,380219.0,
2349.0,987.0,3920.0,1929.0,380223.0,
2350.0,989.0,3920.0,1927.0,380227.0,
2350.0,988.0,3917.0,1925.0,380231.0,
2350.0,987.0,3917.0,1923.0,380235.0,
2349.0,989.0,3919.0,1920.0,380239.0,
2349.0,989.0,3918.0,1915.0,380243.0,
2350.0,989.0,3920.0,1913.0,380247.0,
2349.0,988.0,3919.0,1908.0,380251.0,
2350.0,988.0,3919.0,1904.0,380255.0,
2349.0,988.0,3918.0,1900.0,380259.0,
2349.0,988.0,3919.0,1897.0,380263.0,
2349.0,989.0,3918.0,1894.0,380267.0,
2349.0,988.0,3918.0,1889.0,380271.0,
2350.0,988.0,3917.0,1884.0,380275.0,
2350.0,988.0,3708.0,1886.0,380279.0,
2348.0,987.0,3419.0,1886.0,380283.0,
2349.0,988.0,3135.0,1882.0,380287.0,
2349.0,988.0,2852.0,1884.0,380291.0,
2349.0,988.0,2577.0,1883.0,380295.0,
2349.0,988.0,2313.0,1880.0,380299.0,
2349.0,987.0,2059.0,1878.0,380303.0,
2350.0,988.0,1817.0,1876.0,380307.0,
2349.0,989.0,1586.0,1877.0,380311.0,
2350.0,989.0,1368.0,1879.0,380315.0,
2350.0,989.0,1167.0,1880.0,380319.0,
2349.0,988.0,978.0,1880.0,380323.0,
2349.0,987.0,804.0,1884.0,380327.0,
2349.0,988.0,644.0,1882.0,380331.0,
2348.0,986.0,500.0,1884.0,380335.0,
2349.0,988.0,369.0,1887.0,380339.0,
2348.0,987.0,250.0,1887.0,380343.0,
2349.0,987.0,147.0,1887.0,380347.0,
2350.0,987.0,53.0,1886.0,380351.0,
2349.0,988.0,0.0,1889.0,380355.0,
2349.0,988.0,0.0,1889.0,380359.0,
2349.0,989.0,0.0,1892.0,380363.0,
2349.0,988.0,0.0,1888.0,380367.0,
2350.0,989.0,0.0,1892.0,380371.0,
2350.0,988.0,0.0,1892.0,380375.0,
2350.0,989.0,0.0,1894.0,380379.0,
2350.0,988.0,0.0,1891.0,380383.0,
2350.0,989.0,0.0,1894.0,380387.0,
2349.0,987.0,0.0,1896.0,380391.0,
2349.0,987.0,0.0,1897.0,380395.0,
2349.0,988.0,0.0,1899.0,380399.0,
2350.0,988.0,0.0,1903.0,380403.0,
2349.0,989.0,0.0,1904.0,380407.0,
2349.0,988.0,0.0,1907.0,380411.0,
2349.0,986.0,0.0,1909.0,380415.0,
2350.0,989.0,0.0,1913.0,380419.0,
2350.0,988.0,0.0,1915.0,380423.0,
2350.0,988.0,0.0,1916.0,380427.0,
2350.0,987.0,0.0,1916.0,380431.0,
2350.0,989.0,0.0,1921.0,380435.0,
2349.0,988.0,0.0,1922.0,380439.0,
2349.0,989.0,0.0,1923.0,380443.0,
2349.0,988.0,0.0,1922.0,380447.0,
2349.0,989.0,0.0,1922.0,380451.0,
2349.0,988.0,0.0,1921.0,380455.0,
2349.0,988.0,0.0,1922.0,380459.0,
2349.0,989.0,28.0,1923.0,380463.0,
2350.0,989.0,68.0,1926.0,380467.0,
2349.0,988.0,106.0,1921.0,380471.0,
2350.0,988.0,144.0,1919.0,380475.0,
2350.0,987.0,183.0,1919.0,380479.0,
2349.0,986.0,224.0,1920.0,380483.0,
2349.0,988.0,260.0,1918.0,380487.0,
2350.0,988.0,299.0,1918.0,380491.0,
2349.0,987.0,334.0,1914.0,380495.0,
2348.0,988.0,368.0,1917.0,380499.0,
2349.0,984.0,400.0,1914.0,380503.0,
2350.0,986.0,432.0,1917.0,380507.0,
2349.0,986.0,461.0,1916.0,380511.0,
2350.0,986.0,486.0,1915.0,380515.0,
2349.0,985.0,512.0,1920.0,380519.0,
2349.0,986.0,529.0,1919.0,380523.0,
2349.0,986.0,551.0,1920.0,380527.0,
2348.0,986.0,569.0,1924.0,380531.0,
2349.0,986.0,587.0,1920.0,380535.0,
2348.0,984.0,602.0,1923.0,380539.0,
2349.0,986.0,613.0,1925.0,380543.0,
2349.0,984.0,624.0,1922.0,380547.0,
2349.0,982.0,633.0,1929.0,380551.0,
2349.0,986.0,640.0,1930.0,380555.0,
2350.0,986.0,647.0,1933.0,380559.0,
2349.0,985.0,652.0,1932.0,380563.0,
2350.0,987.0,657.0,1935.0,380567.0,
2350.0,983.0,657.0,1936.0,380571.0,
2350.0,985.0,657.0,1935.0,380575.0,
2350.0,986.0,655.0,1935.0,380579.0,
2349.0,986.0,653.0,1938.0,380583.0,
2349.0,985.0,646.0,1937.0,380587.0,
2350.0,986.0,645.0,1939.0,380591.0,
2350.0,985.0,636.0,1938.0,380595.0,
2349.0,982.0,630.0,1946.0,380599.0,
2349.0,985.0,624.0,1950.0,380603.0,
2349.0,985.0,618.0,1956.0,380607.0,
2349.0,984.0,608.0,1970.0,380611.0,
2350.0,985.0,602.0,1980.0,380615.0,
2349.0,983.0,593.0,1995.0,380619.0,
2350.0,985.0,583.0,2011.0,380623.0,
2349.0,985.0,575.0,2029.0,380627.0,
2350.0,984.0,567.0,2049.0,380631.0,
2350.0,984.0,560.0,2073.0,380635.0,
2350.0,984.0,553.0,2102.0,380639.0,
2350.0,984.0,550.0,2130.0,380643.0,
2349.0,981.0,553.0,2161.0,380647.0,
2350.0,984.0,560.0,2193.0,380651.0,
2349.0,983.0,575.0,2226.0,380655.0,
2350.0,983.0,605.0,2255.0,380659.0,
2349.0,983.0,640.0,2289.0,380663.0,
2350.0,984.0,691.0,2317.0,380667.0,
2350.0,983.0,757.0,2347.0,380671.0,
2349.0,984.0,835.0,2378.0,380675.0,
2349.0,984.0,938.0,2402.0,380679.0,
2350.0,984.0,1058.0,2423.0,380683.0,
2350.0,983.0,1197.0,2445.0,380687.0,
2351.0,983.0,1360.0,2465.0,380691.0,
2349.0,982.0,1545.0,2482.0,380695.0,
2350.0,984.0,1756.0,2498.0,380699.0,
2350.0,984.0,1994.0,2511.0,380703.0,
2350.0,983.0,2251.0,2521.0,380707.0,
2350.0,983.0,2529.0,2535.0,380711.0,
2350.0,983.0,2826.0,2540.0,380715.0,
2349.0,983.0,3137.0,2544.0,380719.0,
2350.0,982.0,3460.0,2550.0,380723.0,
2350.0,983.0,3791.0,2551.0,380727.0,
2351.0,984.0,3918.0,2550.0,380731.0,
2351.0,982.0,3918.0,2545.0,380735.0,
2350.0,981.0,3917.0,2541.0,380739.0,
2350.0,982.0,3919.0,2532.0,380743.0,
2351.0,983.0,3919.0,2526.0,380747.0,
2350.0,982.0,3917.0,2516.0,380751.0,
2351.0,983.0,3919.0,2508.0,380755.0,
2350.0,983.0,3918.0,2498.0,380759.0,
2350.0,983.0,3918.0,2482.0,380763.0,
2350.0,984.0,3919.0,2469.0,380767.0,
2350.0,982.0,3919.0,2454.0,380771.0,
2350.0,984.0,3920.0,2441.0,380775.0,
2350.0,983.0,3919.0,2424.0,380779.0,
2350.0,982.0,3919.0,2407.0,380783.0,
2351.0,983.0,3920.0,2391.0,380787.0,
2351.0,982.0,3918.0,2375.0,380791.0,
2350.0,983.0,3920.0,2356.0,380795.0,
2351.0,981.0,3918.0,2336.0,380799.0,
2350.0,981.0,3919.0,2324.0,380803.0,
2350.0,982.0,3920.0,2304.0,380807.0,
2351.0,982.0,3920.0,2289.0,380811.0,
2351.0,982.0,3920.0,2267.0,380815.0,
2349.0,981.0,3918.0,2247.0,380819.0,
2350.0,982.0,3920.0,2229.0,380823.0,
2350.0,982.0,3920.0,2208.0,380827.0,
2350.0,982.0,3920.0,2190.0,380831.0,
2350.0,982.0,3919.0,2168.0,380835.0,
2351.0,982.0,3920.0,2148.0,380839.0,
2351.0,982.0,3920.0,2131.0,380843.0,
2350.0,982.0,3919.0,2113.0,380847.0,
2350.0,982.0,3920.0,2096.0,380851.0,
2350.0,980.0,3920.0,2080.0,380855.0,
2349.0,982.0,3920.0,2063.0,380859.0,
2349.0,980.0,3919.0,2050.0,380863.0,
2349.0,979.0,3919.0,2032.0,380867.0,
2350.0,982.0,3918.0,2020.0,380871.0,
2350.0,981.0,3920.0,2009.0,380875.0,
2349.0,979.0,3916.0,1998.0,380879.0,
2349.0,981.0,3921.0,1986.0,380883.0,
2349.0,980.0,3918.0,1977.0,380887.0,
2351.0,981.0,3918.0,1965.0,380891.0,
2350.0,982.0,3919.0,1960.0,380895.0,
2350.0,981.0,3918.0,1951.0,380899.0,
2349.0,981.0,3916.0,1945.0,380903.0,
2349.0,981.0,3919.0,1940.0,380907.0,
2350.0,981.0,3918.0,1934.0,380911.0,
2350.0,981.0,3919.0,1933.0,380915.0,
2350.0,981.0,3918.0,1930.0,380919.0,
2349.0,981.0,3920.0,1930.0,380923.0,
2349.0,983.0,3919.0,1930.0,380927.0,
2349.0,983.0,3919.0,1931.0,380931.0,
2351.0,982.0,3920.0,1928.0,380935.0,
2350.0,982.0,3920.0,1928.0,380939.0,
2351.0,983.0,3920.0,1935.0,380943.0,
2349.0,983.0,3919.0,1937.0,380947.0,
2350.0,983.0,3920.0,1938.0,380951.0,
2350.0,982.0,3919.0,1942.0,380955.0,
2350.0,983.0,3919.0,1944.0,380959.0,
2350.0,983.0,3920.0,1947.0,380963.0,
2350.0,983.0,3918.0,1947.0,380967.0,
2349.0,984.0,3920.0,1945.0,380971.0,
2350.0,984.0,3920.0,1947.0,380975.0,
2350.0,983.0,3919.0,1947.0,380979.0,
2349.0,984.0,3919.0,1948.0,380983.0,
2350.0,984.0,3920.0,1948.0,380987.0,
2350.0,984.0,3919.0,1949.0,380991.0,
2349.0,984.0,3919.0,1948.0,380995.0,
2348.0,983.0,3917.0,1947.0,380999.0,
2349.0,984.0,3919.0,1947.0,381003.0,
2350.0,983.0,3917.0,1945.0,381007.0,
2351.0,984.0,3919.0,1944.0,381011.0,
2350.0,984.0,3920.0,1942.0,381015.0,
2350.0,983.0,3919.0,1940.0,381019.0,
2349.0,983.0,3918.0,1937.0,381023.0,
2350.0,983.0,3919.0,1931.0,381027.0,
2349.0,983.0,3918.0,1926.0,381031.0,
2350.0,984.0,3919.0,1924.0,381035.0,
2349.0,982.0,3917.0,1920.0,381039.0,
2350.0,983.0,3919.0,1915.0,381043.0,
2350.0,983.0,3918.0,1910.0,381047.0,
2350.0,981.0,3918.0,1905.0,381051.0,
2350.0,983.0,3919.0,1904.0,381055.0,
2349.0,983.0,3920.0,1900.0,381059.0,
2349.0,982.0,3918.0,1902.0,381063.0,
2350.0,983.0,3688.0,1902.0,381067.0,
2350.0,983.0,3429.0,1898.0,381071.0,
2349.0,983.0,3166.0,1898.0,381075.0,
2349.0,983.0,2909.0,1897.0,381079.0,
2349.0,982.0,2658.0,1894.0,381083.0,
2350.0,982.0,2413.0,1901.0,381087.0,
2350.0,982.0,2177.0,1903.0,381091.0,
2350.0,982.0,1951.0,1902.0,381095.0,
2350.0,982.0,1736.0,1907.0,381099.0,
2349.0,982.0,1533.0,1907.0,381103.0,
2350.0,981.0,1341.0,1910.0,381107.0,
2350.0,981.0,1159.0,1912.0,381111.0,
2350.0,982.0,992.0,1915.0,381115.0,
2350.0,981.0,837.0,1919.0,381119.0,
2349.0,982.0,696.0,1922.0,381123.0,
2350.0,981.0,564.0,1921.0,381127.0,
2350.0,982.0,446.0,1919.0,381131.0,
2350.0,982.0,341.0,1921.0,381135.0,
2350.0,981.0,247.0,1917.0,381139.0,
2350.0,982.0,165.0,1918.0,381143.0,
2350.0,981.0,91.0,1916.0,381147.0,
2350.0,980.0,28.0,1918.0,381151.0,
2350.0,981.0,0.0,1919.0,381155.0,
2349.0,982.0,0.0,1919.0,381159.0,
2350.0,982.0,0.0,1923.0,381163.0,
2350.0,981.0,0.0,1919.0,381167.0,
2351.0,982.0,0.0,1919.0,381171.0,
2349.0,981.0,0.0,1916.0,381175.0,
2350.0,982.0,0.0,1918.0,381179.0,
2350.0,982.0,0.0,1916.0,381183.0,
2349.0,982.0,0.0,1915.0,381187.0,
2350.0,982.0,0.0,1915.0,381191.0,
2350.0,983.0,0.0,1911.0,381195.0,
2350.0,982.0,0.0,1912.0,381199.0,
2349.0,980.0,0.0,1913.0,381203.0,
2350.0,981.0,0.0,1912.0,381207.0,
2349.0,982.0,0.0,1910.0,381211.0,
2349.0,980.0,0.0,1907.0,381215.0,
2350.0,981.0,0.0,1909.0,381219.0,
2349.0,981.0,0.0,1905.0,381223.0,
2349.0,982.0,0.0,1904.0,381227.0,
2348.0,981.0,0.0,1902.0,381231.0,
2349.0,981.0,0.0,1900.0,381235.0,
2349.0,982.0,0.0,1901.0,381239.0,
2350.0,981.0,0.0,1900.0,381243.0,
2350.0,980.0,0.0,1901.0,381247.0,
2349.0,981.0,33.0,1903.0,381251.0,
2349.0,981.0,63.0,1903.0,381255.0,
2350.0,981.0,94.0,1906.0,381259.0,
2350.0,980.0,124.0,1909.0,381263.0,
2350.0,981.0,153.0,1914.0,381267.0,
2350.0,980.0,181.0,1913.0,381271.0,
2350.0,981.0,210.0,1916.0,381275.0,
2349.0,980.0,236.0,1919.0,381279.0,
2349.0,981.0,268.0,1923.0,381283.0,
2350.0,980.0,290.0,1922.0,381287.0,
2350.0,981.0,318.0,1928.0,381291.0,
2350.0,981.0,342.0,1928.0,381295.0,
2350.0,980.0,363.0,1924.0,381299.0,
2350.0,982.0,387.0,1932.0,381303.0,
2349.0,981.0,408.0,1930.0,381307.0,
2350.0,980.0,426.0,1932.0,381311.0,
2351.0,981.0,444.0,1932.0,381315.0,
2350.0,980.0,459.0,1932.0,381319.0,
2349.0,981.0,472.0,1933.0,381323.0,
2348.0,980.0,481.0,1933.0,381327.0,
2350.0,980.0,496.0,1936.0,381331.0,
2350.0,981.0,506.0,1934.0,381335.0,
2350.0,981.0,516.0,1934.0,381339.0,
2350.0,980.0,525.0,1935.0,381343.0,
2350.0,980.0,533.0,1939.0,381347.0,
2349.0,980.0,540.0,1940.0,381351.0,
2350.0,980.0,549.0,1940.0,381355.0,
2350.0,981.0,556.0,1947.0,381359.0,
2350.0,981.0,563.0,1946.0,381363.0,
2350.0,980.0,567.0,1947.0,381367.0,
2350.0,980.0,573.0,1948.0,381371.0,
2350.0,979.0,578.0,1948.0,381375.0,
2350.0,980.0,584.0,1947.0,381379.0,
2350.0,980.0,591.0,1947.0,381383.0,
2350.0,979.0,596.0,1948.0,381387.0,
2350.0,980.0,598.0,1947.0,381391.0,
2350.0,979.0,592.0,1950.0,381395.0,
2349.0,978.0,591.0,1949.0,381399.0,
2350.0,979.0,589.0,1949.0,381403.0,
2350.0,979.0,588.0,1956.0,381407.0,
2351.0,979.0,584.0,1959.0,381411.0,
2351.0,979.0,579.0,1964.0,381415.0,
2350.0,978.0,576.0,1972.0,381419.0,
2350.0,978.0,574.0,1977.0,381423.0,
2350.0,978.0,570.0,1984.0,381427.0,
2350.0,978.0,563.0,2000.0,381431.0,
2350.0,978.0,556.0,2015.0,381435.0,
2350.0,978.0,549.0,2034.0,381439.0,
2350.0,977.0,541.0,2055.0,381443.0,
2350.0,977.0,532.0,2074.0,381447.0,
2350.0,977.0,528.0,2098.0,381451.0,
2350.0,978.0,523.0,2126.0,381455.0,
2350.0,978.0,522.0,2151.0,381459.0,
2350.0,979.0,523.0,2180.0,381463.0,
2350.0,978.0,528.0,2211.0,381467.0,
2351.0,977.0,540.0,2237.0,381471.0,
2351.0,978.0,564.0,2268.0,381475.0,
2351.0,977.0,594.0,2297.0,381479.0,
2350.0,979.0,638.0,2325.0,381483.0,
2350.0,978.0,691.0,2347.0,381487.0,
2350.0,978.0,764.0,2372.0,381491.0,
2350.0,977.0,851.0,2397.0,381495.0,
2351.0,977.0,953.0,2413.0,381499.0,
2350.0,978.0,1082.0,2432.0,381503.0,
2350.0,977.0,1228.0,2449.0,381507.0,
2351.0,977.0,1391.0,2465.0,381511.0,
2351.0,977.0,1571.0,2475.0,381515.0,
2349.0,976.0,1773.0,2485.0,381519.0,
2351.0,976.0,1996.0,2494.0,381523.0,
2350.0,975.0,2229.0,2496.0,381527.0,
2351.0,976.0,2483.0,2496.0,381531.0,
2349.0,975.0,2742.0,2499.0,381535.0,
2351.0,976.0,3014.0,2494.0,381539.0,
2351.0,976.0,3293.0,2494.0,381543.0,
2351.0,976.0,3572.0,2490.0,381547.0,
2351.0,976.0,3853.0,2486.0,381551.0,
2351.0,975.0,3919.0,2478.0,381555.0,
2351.0,975.0,3918.0,2473.0,381559.0,
2351.0,975.0,3917.0,2464.0,381563.0,
2351.0,977.0,3918.0,2456.0,381567.0,
2351.0,975.0,3918.0,2445.0,381571.0,
2350.0,976.0,3919.0,2436.0,381575.0,
2351.0,975.0,3919.0,2423.0,381579.0,
2351.0,976.0,3919.0,2413.0,381583.0,
2352.0,975.0,3919.0,2399.0,381587.0,
2351.0,975.0,3918.0,2384.0,381591.0,
2351.0,975.0,3919.0,2371.0,381595.0,
2351.0,974.0,3917.0,2356.0,381599.0,
2350.0,974.0,3917.0,2341.0,381603.0,
2351.0,975.0,3918.0,2322.0,381607.0,
2351.0,975.0,3919.0,2303.0,381611.0,
2351.0,975.0,3918.0,2284.0,381615.0,
2350.0,975.0,3919.0,2266.0,381619.0,
2350.0,973.0,3919.0,2244.0,381623.0,
2350.0,975.0,3920.0,2224.0,381627.0,
2351.0,974.0,3919.0,2201.0,381631.0,
2351.0,974.0,3919.0,2183.0,381635.0,
2350.0,973.0,3919.0,2161.0,381639.0,
2350.0,974.0,3919.0,2140.0,381643.0,
2351.0,974.0,3919.0,2119.0,381647.0,
2350.0,973.0,3918.0,2099.0,381651.0,
2350.0,972.0,3918.0,2080.0,381655.0,
2350.0,973.0,3919.0,2059.0,381659.0,
2350.0,974.0,3920.0,2042.0,381663.0,
2349.0,973.0,3919.0,2032.0,381667.0,
2350.0,974.0,3920.0,2021.0,381671.0,
2350.0,973.0,3919.0,2005.0,381675.0,
2350.0,973.0,3919.0,1998.0,381679.0,
2350.0,973.0,3918.0,1990.0,381683.0,
2350.0,971.0,3915.0,1986.0,381687.0,
2350.0,974.0,3919.0,1983.0,381691.0,
2350.0,972.0,3918.0,1978.0,381695.0,
2350.0,971.0,3917.0,1978.0,381699.0,
2349.0,974.0,3919.0,1978.0,381703.0,
2349.0,972.0,3919.0,1974.0,381707.0,
2350.0,972.0,3918.0,1978.0,381711.0,
2349.0,973.0,3919.0,1978.0,381715.0,
2350.0,972.0,3917.0,1974.0,381719.0,
2350.0,973.0,3919.0,1976.0,381723.0,
2350.0,972.0,3918.0,1976.0,381727.0,
2349.0,973.0,3919.0,1978.0,381731.0,
2350.0,973.0,3918.0,1978.0,381735.0,
2347.0,969.0,3917.0,1979.0,381739.0,
2349.0,971.0,3918.0,1975.0,381743.0,
2349.0,971.0,3919.0,1975.0,381747.0,
2349.0,972.0,3919.0,1978.0,381751.0,
2350.0,971.0,3918.0,1979.0,381755.0,
2350.0,972.0,3919.0,1978.0,381759.0,
2349.0,971.0,3918.0,1978.0,381763.0,
2349.0,971.0,3918.0,1974.0,381767.0,
2349.0,971.0,3918.0,1974.0,381771.0,
2348.0,970.0,3917.0,1974.0,381775.0,
2350.0,971.0,3918.0,1966.0,381779.0,
2348.0,970.0,3907.0,1967.0,381783.0,
2349.0,971.0,3607.0,1965.0,381787.0,
2349.0,970.0,3368.0,1964.0,381791.0,
2350.0,970.0,3133.0,1962.0,381795.0,
2349.0,970.0,2905.0,1960.0,381799.0,
2348.0,970.0,2688.0,1958.0,381803.0,
2350.0,970.0,2481.0,1954.0,381807.0,
2350.0,971.0,2286.0,1949.0,381811.0,
2349.0,970.0,2098.0,1945.0,381815.0,
2349.0,969.0,1925.0,1940.0,381819.0,
2349.0,970.0,1767.0,1938.0,381823.0,
2348.0,970.0,1618.0,1931.0,381827.0,
2349.0,970.0,1489.0,1926.0,381831.0,
2349.0,971.0,1368.0,1929.0,381835.0,
2348.0,970.0,1258.0,1928.0,381839.0,
2348.0,969.0,1160.0,1924.0,381843.0,
2348.0,971.0,1074.0,1922.0,381847.0,
2349.0,972.0,996.0,1923.0,381851.0,
2349.0,971.0,931.0,1923.0,381855.0,
2349.0,970.0,874.0,1924.0,381859.0,
2349.0,970.0,825.0,1922.0,381863.0,
2349.0,969.0,783.0,1918.0,381867.0,
2350.0,971.0,750.0,1920.0,381871.0,
2349.0,970.0,720.0,1920.0,381875.0,
2349.0,970.0,695.0,1920.0,381879.0,
2349.0,971.0,679.0,1917.0,381883.0,
2348.0,970.0,662.0,1916.0,381887.0,
2348.0,971.0,655.0,1912.0,381891.0,
2349.0,971.0,646.0,1916.0,381895.0,
2349.0,971.0,643.0,1911.0,381899.0,
2349.0,970.0,641.0,1909.0,381903.0,
2348.0,969.0,640.0,1906.0,381907.0,
2349.0,970.0,644.0,1905.0,381911.0,
2348.0,970.0,644.0,1904.0,381915.0,
2347.0,970.0,645.0,1902.0,381919.0,
2348.0,970.0,651.0,1896.0,381923.0,
2348.0,970.0,655.0,1897.0,381927.0,
2348.0,970.0,657.0,1896.0,381931.0,
2348.0,969.0,660.0,1897.0,381935.0,
2349.0,971.0,662.0,1895.0,381939.0,
2349.0,970.0,662.0,1895.0,381943.0,
2349.0,971.0,665.0,1896.0,381947.0,
2349.0,970.0,666.0,1895.0,381951.0,
2348.0,971.0,666.0,1896.0,381955.0,
2349.0,969.0,665.0,1897.0,381959.0,
2349.0,970.0,665.0,1900.0,381963.0,
2348.0,970.0,662.0,1897.0,381967.0,
2348.0,970.0,657.0,1900.0,381971.0,
2348.0,970.0,657.0,1900.0,381975.0,
2349.0,969.0,653.0,1900.0,381979.0,
2347.0,969.0,645.0,1899.0,381983.0,
2348.0,970.0,643.0,1902.0,381987.0,
2349.0,969.0,637.0,1905.0,381991.0,
2349.0,970.0,630.0,1905.0,381995.0,
2349.0,970.0,623.0,1904.0,381999.0,
2347.0,969.0,613.0,1908.0,382003.0,
2349.0,970.0,609.0,1906.0,382007.0,
2349.0,970.0,604.0,1914.0,382011.0,
2348.0,969.0,595.0,1916.0,382015.0,
2348.0,970.0,590.0,1920.0,382019.0,
2349.0,969.0,584.0,1922.0,382023.0,
2349.0,969.0,578.0,1927.0,382027.0,
2349.0,968.0,567.0,1929.0,382031.0,
2348.0,969.0,566.0,1934.0,382035.0,
2349.0,969.0,558.0,1936.0,382039.0,
2349.0,969.0,553.0,1937.0,382043.0,
2349.0,969.0,550.0,1941.0,382047.0,
2349.0,969.0,546.0,1944.0,382051.0,
2349.0,970.0,544.0,1948.0,382055.0,
2349.0,970.0,544.0,1950.0,382059.0,
2350.0,970.0,541.0,1950.0,382063.0,
2349.0,969.0,540.0,1949.0,382067.0,
2350.0,970.0,539.0,1949.0,382071.0,
2350.0,970.0,539.0,1949.0,382075.0,
2349.0,969.0,538.0,1952.0,382079.0,
2348.0,969.0,537.0,1952.0,382083.0,
2349.0,970.0,542.0,1952.0,382087.0,
2350.0,970.0,546.0,1953.0,382091.0,
2349.0,969.0,549.0,1954.0,382095.0,
2349.0,970.0,554.0,1955.0,382099.0,
2349.0,970.0,559.0,1950.0,382103.0,
2350.0,969.0,563.0,1953.0,382107.0,
2349.0,970.0,569.0,1952.0,382111.0,
2351.0,969.0,577.0,1949.0,382115.0,
2350.0,969.0,583.0,1951.0,382119.0,
2349.0,968.0,588.0,1951.0,382123.0,
2350.0,970.0,595.0,1946.0,382127.0,
2350.0,971.0,601.0,1946.0,382131.0,
2350.0,970.0,604.0,1943.0,382135.0,
2349.0,970.0,607.0,1942.0,382139.0,
2351.0,969.0,612.0,1945.0,382143.0,
2349.0,969.0,618.0,1949.0,382147.0,
2349.0,969.0,618.0,1952.0,382151.0,
2350.0,969.0,626.0,1961.0,382155.0,
2349.0,969.0,628.0,1966.0,382159.0,
2350.0,971.0,635.0,1975.0,382163.0,
2350.0,970.0,639.0,1987.0,382167.0,
2351.0,969.0,641.0,1998.0,382171.0,
2351.0,970.0,645.0,2017.0,382175.0,
2350.0,969.0,648.0,2035.0,382179.0,
2350.0,970.0,650.0,2054.0,382183.0,
2351.0,969.0,653.0,2080.0,382187.0,
2351.0,970.0,658.0,2107.0,382191.0,
2351.0,969.0,662.0,2136.0,382195.0,
2349.0,968.0,670.0,2170.0,382199.0,
2349.0,969.0,678.0,2198.0,382203.0,
2350.0,967.0,688.0,2225.0,382207.0,
2351.0,968.0,704.0,2257.0,382211.0,
2351.0,969.0,730.0,2285.0,382215.0,
2351.0,969.0,763.0,2311.0,382219.0,
2351.0,969.0,804.0,2338.0,382223.0,
2351.0,968.0,858.0,2360.0,382227.0,
2351.0,970.0,927.0,2385.0,382231.0,
2351.0,970.0,1012.0,2404.0,382235.0,
2352.0,969.0,1110.0,2422.0,382239.0,
2351.0,970.0,1231.0,2443.0,382243.0,
2350.0,969.0,1368.0,2455.0,382247.0,
2352.0,969.0,1526.0,2469.0,382251.0,
2352.0,970.0,1699.0,2476.0,382255.0,
2351.0,968.0,1892.0,2485.0,382259.0,
2351.0,970.0,2100.0,2490.0,382263.0,
2351.0,971.0,2324.0,2497.0,382267.0,
2351.0,970.0,2563.0,2497.0,382271.0,
2351.0,971.0,2813.0,2499.0,382275.0,
2351.0,969.0,3073.0,2497.0,382279.0,
2351.0,971.0,3340.0,2493.0,382283.0,
2351.0,971.0,3611.0,2492.0,382287.0,
2352.0,969.0,3878.0,2488.0,382291.0,
2351.0,971.0,3919.0,2482.0,382295.0,
2351.0,971.0,3919.0,2478.0,382299.0,
2352.0,971.0,3919.0,2471.0,382303.0,
2351.0,971.0,3918.0,2462.0,382307.0,
2351.0,971.0,3918.0,2452.0,382311.0,
2351.0,972.0,3918.0,2443.0,382315.0,
2351.0,971.0,3918.0,2434.0,382319.0,
2350.0,971.0,3919.0,2422.0,382323.0,
2351.0,972.0,3919.0,2410.0,382327.0,
2351.0,972.0,3918.0,2395.0,382331.0,
2351.0,972.0,3919.0,2380.0,382335.0,
2351.0,972.0,3919.0,2363.0,382339.0,
2350.0,972.0,3919.0,2350.0,382343.0,
2350.0,973.0,3919.0,2335.0,382347.0,
2351.0,973.0,3919.0,2319.0,382351.0,
2351.0,972.0,3918.0,2301.0,382355.0,
2351.0,971.0,3918.0,2281.0,382359.0,
2350.0,973.0,3920.0,2260.0,382363.0,
2350.0,972.0,3918.0,2239.0,382367.0,
2351.0,973.0,3919.0,2218.0,382371.0,
2351.0,972.0,3918.0,2198.0,382375.0,
2350.0,973.0,3919.0,2174.0,382379.0,
2349.0,973.0,3919.0,2155.0,382383.0,
2349.0,973.0,3918.0,2132.0,382387.0,
2351.0,973.0,3919.0,2110.0,382391.0,
2351.0,974.0,3920.0,2095.0,382395.0,
2350.0,972.0,3917.0,2075.0,382399.0,
2350.0,974.0,3919.0,2063.0,382403.0,
2351.0,974.0,3919.0,2045.0,382407.0,
2351.0,974.0,3920.0,2034.0,382411.0,
2350.0,974.0,3920.0,2019.0,382415.0,
2351.0,973.0,3918.0,2008.0,382419.0,
2350.0,973.0,3918.0,2001.0,382423.0,
2350.0,973.0,3918.0,1991.0,382427.0,
2350.0,975.0,3919.0,1983.0,382431.0,
2350.0,973.0,3917.0,1978.0,382435.0,
2349.0,976.0,3920.0,1974.0,382439.0,
2350.0,975.0,3918.0,1966.0,382443.0,
2350.0,975.0,3919.0,1961.0,382447.0,
2350.0,977.0,3919.0,1961.0,382451.0,
2349.0,976.0,3919.0,1958.0,382455.0,
2350.0,977.0,3918.0,1958.0,382459.0,
2350.0,977.0,3917.0,1958.0,382463.0,
2350.0,977.0,3917.0,1956.0,382467.0,
2350.0,978.0,3919.0,1959.0,382471.0,
2350.0,978.0,3918.0,1959.0,382475.0,
2350.0,978.0,3918.0,1960.0,382479.0,
2348.0,977.0,3918.0,1967.0,382483.0,
2349.0,978.0,3917.0,1965.0,382487.0,
2348.0,977.0,3915.0,1971.0,382491.0,
2349.0,979.0,3919.0,1971.0,382495.0,
2348.0,978.0,3917.0,1974.0,382499.0,
2349.0,978.0,3918.0,1976.0,382503.0,
2350.0,980.0,3917.0,1978.0,382507.0,
2350.0,979.0,3917.0,1978.0,382511.0,
2349.0,979.0,3917.0,1977.0,382515.0,
2350.0,979.0,3918.0,1976.0,382519.0,
2349.0,979.0,3919.0,1977.0,382523.0,
2348.0,979.0,3916.0,1975.0,382527.0,
2349.0,980.0,3918.0,1972.0,382531.0,
2349.0,981.0,3852.0,1965.0,382535.0,
2349.0,980.0,3606.0,1965.0,382539.0,
2349.0,979.0,3374.0,1962.0,382543.0,
2349.0,980.0,3149.0,1958.0,382547.0,
2349.0,980.0,2925.0,1952.0,382551.0,
2349.0,982.0,2717.0,1952.0,382555.0,
2349.0,981.0,2514.0,1948.0,382559.0,
2349.0,982.0,2323.0,1945.0,382563.0,
2350.0,982.0,2145.0,1940.0,382567.0,
2350.0,983.0,1977.0,1940.0,382571.0,
2350.0,983.0,1822.0,1934.0,382575.0,
2349.0,982.0,1678.0,1932.0,382579.0,
2349.0,982.0,1547.0,1930.0,382583.0,
2349.0,981.0,1427.0,1927.0,382587.0,
2349.0,981.0,1321.0,1924.0,382591.0,
2349.0,982.0,1226.0,1922.0,382595.0,
2349.0,982.0,1138.0,1922.0,382599.0,
2349.0,982.0,1059.0,1920.0,382603.0,
2349.0,981.0,992.0,1923.0,382607.0,
2349.0,982.0,932.0,1924.0,382611.0,
2349.0,981.0,880.0,1922.0,382615.0,
2348.0,980.0,833.0,1924.0,382619.0,
2350.0,982.0,794.0,1922.0,382623.0,
2349.0,982.0,759.0,1923.0,382627.0,
2350.0,982.0,732.0,1923.0,382631.0,
2350.0,982.0,707.0,1921.0,382635.0,
2349.0,982.0,690.0,1920.0,382639.0,
2349.0,982.0,672.0,1917.0,382643.0,
2349.0,982.0,659.0,1919.0,382647.0,
2350.0,982.0,647.0,1918.0,382651.0,
2349.0,982.0,642.0,1917.0,382655.0,
2349.0,982.0,634.0,1917.0,382659.0,
2348.0,981.0,629.0,1919.0,382663.0,
2349.0,981.0,627.0,1917.0,382667.0,
2349.0,982.0,629.0,1916.0,382671.0,
2349.0,983.0,628.0,1915.0,382675.0,
2349.0,982.0,630.0,1917.0,382679.0,
2349.0,982.0,632.0,1914.0,382683.0,
2350.0,983.0,635.0,1916.0,382687.0,
2350.0,983.0,638.0,1911.0,382691.0,
2350.0,984.0,640.0,1913.0,382695.0,
2349.0,981.0,642.0,1913.0,382699.0,
2349.0,982.0,645.0,1914.0,382703.0,
2348.0,982.0,648.0,1914.0,382707.0,
2349.0,982.0,648.0,1916.0,382711.0,
2350.0,983.0,649.0,1913.0,382715.0,
2349.0,982.0,651.0,1915.0,382719.0,
2348.0,981.0,652.0,1916.0,382723.0,
2349.0,981.0,650.0,1916.0,382727.0,
2350.0,981.0,653.0,1916.0,382731.0,
2350.0,982.0,651.0,1914.0,382735.0,
2348.0,981.0,647.0,1918.0,382739.0,
2349.0,983.0,648.0,1916.0,382743.0,
2350.0,982.0,649.0,1915.0,382747.0,
2350.0,981.0,649.0,1912.0,382751.0,
2348.0,983.0,650.0,1916.0,382755.0,
2350.0,983.0,646.0,1912.0,382759.0,
2349.0,984.0,645.0,1911.0,382763.0,
2350.0,984.0,641.0,1910.0,382767.0,
2350.0,984.0,640.0,1911.0,382771.0,
2350.0,985.0,641.0,1909.0,382775.0,
2350.0,984.0,638.0,1914.0,382779.0,
2349.0,984.0,634.0,1916.0,382783.0,
2350.0,983.0,634.0,1916.0,382787.0,
2350.0,983.0,635.0,1912.0,382791.0,
2351.0,983.0,634.0,1914.0,382795.0,
2351.0,983.0,634.0,1915.0,382799.0,
2350.0,983.0,636.0,1913.0,382803.0,
2350.0,983.0,636.0,1914.0,382807.0,
2349.0,983.0,639.0,1913.0,382811.0,
2350.0,982.0,643.0,1914.0,382815.0,
2349.0,982.0,641.0,1912.0,382819.0,
2350.0,983.0,644.0,1914.0,382823.0,
2350.0,982.0,645.0,1911.0,382827.0,
2350.0,983.0,648.0,1912.0,382831.0,
2350.0,982.0,649.0,1910.0,382835.0,
2350.0,982.0,654.0,1911.0,382839.0,
2350.0,983.0,656.0,1915.0,382843.0,
2349.0,982.0,658.0,1915.0,382847.0,
2350.0,982.0,665.0,1915.0,382851.0,
2351.0,983.0,666.0,1917.0,382855.0,
2350.0,982.0,671.0,1917.0,382859.0,
2350.0,983.0,678.0,1917.0,382863.0,
2349.0,983.0,681.0,1921.0,382867.0,
2350.0,983.0,687.0,1922.0,382871.0,
2351.0,983.0,698.0,1924.0,382875.0,
2349.0,983.0,706.0,1928.0,382879.0,
2349.0,982.0,710.0,1930.0,382883.0,
2350.0,982.0,720.0,1933.0,382887.0,
2350.0,983.0,726.0,1934.0,382891.0,
2351.0,983.0,735.0,1935.0,382895.0,
2351.0,983.0,740.0,1942.0,382899.0,
2350.0,983.0,741.0,1943.0,382903.0,
2350.0,983.0,749.0,1942.0,382907.0,
2350.0,985.0,753.0,1946.0,382911.0,
2350.0,984.0,760.0,1949.0,382915.0,
2351.0,984.0,762.0,1951.0,382919.0,
2351.0,984.0,768.0,1954.0,382923.0,
2350.0,984.0,768.0,1955.0,382927.0,
2349.0,984.0,770.0,1958.0,382931.0,
2350.0,984.0,772.0,1961.0,382935.0,
2350.0,985.0,771.0,1966.0,382939.0,
2350.0,984.0,770.0,1967.0,382943.0,
2351.0,984.0,769.0,1977.0,382947.0,
2351.0,985.0,766.0,1983.0,382951.0,
2350.0,984.0,763.0,1999.0,382955.0,
2350.0,984.0,756.0,2008.0,382959.0,
2350.0,983.0,754.0,2027.0,382963.0,
2351.0,983.0,749.0,2044.0,382967.0,
2350.0,983.0,743.0,2067.0,382971.0,
2351.0,983.0,738.0,2092.0,382975.0,
2351.0,983.0,735.0,2125.0,382979.0,
2351.0,982.0,731.0,2156.0,382983.0,
2351.0,983.0,733.0,2188.0,382987.0,
2351.0,983.0,740.0,2219.0,382991.0,
2351.0,983.0,752.0,2254.0,382995.0,
2350.0,984.0,772.0,2286.0,382999.0,
2351.0,984.0,799.0,2318.0,383003.0,
2351.0,985.0,836.0,2351.0,383007.0,
2350.0,984.0,890.0,2384.0,383011.0,
2351.0,985.0,954.0,2410.0,383015.0,
2351.0,984.0,1036.0,2438.0,383019.0,
2351.0,985.0,1137.0,2463.0,383023.0,
2351.0,985.0,1258.0,2486.0,383027.0,
2351.0,985.0,1395.0,2506.0,383031.0,
2351.0,985.0,1559.0,2524.0,383035.0,
2351.0,984.0,1741.0,2542.0,383039.0,
2351.0,985.0,1949.0,2555.0,383043.0,
2351.0,985.0,2174.0,2564.0,383047.0,
2352.0,985.0,2423.0,2572.0,383051.0,
2351.0,985.0,2687.0,2576.0,383055.0,
2351.0,984.0,2964.0,2581.0,383059.0,
2350.0,983.0,3256.0,2583.0,383063.0,
2352.0,985.0,3564.0,2582.0,383067.0,
2351.0,984.0,3871.0,2580.0,383071.0,
2351.0,985.0,3917.0,2575.0,383075.0,
2351.0,984.0,3917.0,2574.0,383079.0,
2351.0,985.0,3919.0,2567.0,383083.0,
2351.0,985.0,3919.0,2561.0,383087.0,
2350.0,983.0,3919.0,2555.0,383091.0,
2351.0,985.0,3919.0,2546.0,383095.0,
2351.0,984.0,3918.0,2531.0,383099.0,
2350.0,985.0,3919.0,2523.0,383103.0,
2352.0,983.0,3917.0,2510.0,383107.0,
2352.0,985.0,3919.0,2502.0,383111.0,
2351.0,984.0,3917.0,2485.0,383115.0,
2351.0,983.0,3920.0,2475.0,383119.0,
2351.0,984.0,3919.0,2461.0,383123.0,
2351.0,984.0,3919.0,2451.0,383127.0,
2352.0,982.0,3917.0,2437.0,383131.0,
2351.0,984.0,3919.0,2427.0,383135.0,
2351.0,983.0,3919.0,2412.0,383139.0,
2351.0,984.0,3918.0,2399.0,383143.0,
2351.0,985.0,3919.0,2387.0,383147.0,
2351.0,985.0,3919.0,2370.0,383151.0,
2351.0,983.0,3917.0,2353.0,383155.0,
2351.0,983.0,3920.0,2337.0,383159.0,
2351.0,985.0,3919.0,2320.0,383163.0,
2350.0,983.0,3919.0,2301.0,383167.0,
2350.0,983.0,3919.0,2278.0,383171.0,
2352.0,984.0,3919.0,2256.0,383175.0,
2350.0,985.0,3921.0,2232.0,383179.0,
2351.0,985.0,3919.0,2205.0,383183.0,
2350.0,984.0,3918.0,2184.0,383187.0,
2350.0,982.0,3917.0,2158.0,383191.0,
2350.0,984.0,3918.0,2134.0,383195.0,
2351.0,984.0,3920.0,2114.0,383199.0,
2350.0,985.0,3919.0,2092.0,383203.0,
2349.0,984.0,3919.0,2073.0,383207.0,
2351.0,984.0,3919.0,2054.0,383211.0,
2350.0,985.0,3920.0,2035.0,383215.0,
2349.0,984.0,3919.0,2020.0,383219.0,
2351.0,984.0,3919.0,2004.0,383223.0,
2350.0,984.0,3920.0,1992.0,383227.0,
2351.0,985.0,3920.0,1980.0,383231.0,
2351.0,984.0,3920.0,1973.0,383235.0,
2350.0,984.0,3920.0,1962.0,383239.0,
2350.0,985.0,3920.0,1953.0,383243.0,
2350.0,985.0,3920.0,1952.0,383247.0,
2350.0,985.0,3920.0,1942.0,383251.0,
2349.0,985.0,3920.0,1940.0,383255.0,
2350.0,985.0,3921.0,1937.0,383259.0,
2350.0,984.0,3921.0,1936.0,383263.0,
2350.0,985.0,3920.0,1931.0,383267.0,
2350.0,985.0,3920.0,1930.0,383271.0,
2350.0,985.0,3920.0,1928.0,383275.0,
2349.0,984.0,3919.0,1931.0,383279.0,
2349.0,985.0,3919.0,1927.0,383283.0,
2350.0,985.0,3920.0,1928.0,383287.0,
2350.0,985.0,3920.0,1930.0,383291.0,
2350.0,985.0,3920.0,1927.0,383295.0,
2350.0,985.0,3920.0,1928.0,383299.0,
2350.0,985.0,3919.0,1927.0,383303.0,
2351.0,984.0,3919.0,1929.0,383307.0,
2350.0,985.0,3919.0,1930.0,383311.0,
2348.0,985.0,3918.0,1931.0,383315.0,
2349.0,986.0,3919.0,1935.0,383319.0,
2349.0,985.0,3918.0,1939.0,383323.0,
2350.0,985.0,3919.0,1937.0,383327.0,
2350.0,985.0,3920.0,1941.0,383331.0,
2350.0,985.0,3920.0,1941.0,383335.0,
2349.0,985.0,3919.0,1941.0,383339.0,
2350.0,984.0,3918.0,1941.0,383343.0,
2350.0,984.0,3919.0,1945.0,383347.0,
2349.0,984.0,3918.0,1943.0,383351.0,
2349.0,983.0,3919.0,1943.0,383355.0,
2348.0,983.0,3917.0,1942.0,383359.0,
2349.0,984.0,3920.0,1944.0,383363.0,
2349.0,982.0,3917.0,1942.0,383367.0,
2350.0,985.0,3919.0,1943.0,383371.0,
2349.0,984.0,3918.0,1945.0,383375.0,
2351.0,983.0,3918.0,1945.0,383379.0,
2349.0,985.0,3919.0,1940.0,383383.0,
2349.0,984.0,3918.0,1943.0,383387.0,
2349.0,983.0,3918.0,1937.0,383391.0,
2350.0,983.0,3920.0,1940.0,383395.0,
2349.0,983.0,3918.0,1935.0,383399.0,
2349.0,981.0,3918.0,1929.0,383403.0,
2350.0,982.0,3918.0,1925.0,383407.0,
2350.0,984.0,3919.0,1924.0,383411.0,
2349.0,983.0,3918.0,1921.0,383415.0,
2349.0,984.0,3919.0,1914.0,383419.0,
2350.0,984.0,3919.0,1913.0,383423.0,
2348.0,981.0,3917.0,1910.0,383427.0,
2350.0,982.0,3917.0,1905.0,383431.0,
2350.0,982.0,3917.0,1906.0,383435.0,
2350.0,983.0,3919.0,1903.0,383439.0,
2350.0,984.0,3758.0,1901.0,383443.0,
2349.0,982.0,3491.0,1902.0,383447.0,
2349.0,983.0,3225.0,1902.0,383451.0,
2350.0,984.0,2960.0,1903.0,383455.0,
2349.0,986.0,2705.0,1903.0,383459.0,
2350.0,984.0,2454.0,1903.0,383463.0,
2349.0,984.0,2214.0,1903.0,383467.0,
2350.0,985.0,1987.0,1903.0,383471.0,
2350.0,985.0,1767.0,1901.0,383475.0,
2349.0,984.0,1565.0,1898.0,383479.0,
2349.0,985.0,1370.0,1896.0,383483.0,
2350.0,984.0,1193.0,1896.0,383487.0,
2350.0,985.0,1026.0,1897.0,383491.0,
2350.0,984.0,874.0,1895.0,383495.0,
2349.0,983.0,738.0,1895.0,383499.0,
2348.0,983.0,614.0,1895.0,383503.0,
2349.0,983.0,500.0,1897.0,383507.0,
2349.0,983.0,397.0,1894.0,383511.0,
2350.0,984.0,313.0,1896.0,383515.0,
2348.0,984.0,235.0,1897.0,383519.0,
2351.0,984.0,168.0,1897.0,383523.0,
2350.0,984.0,113.0,1894.0,383527.0,
2350.0,984.0,64.0,1896.0,383531.0,
2350.0,983.0,25.0,1894.0,383535.0,
2350.0,984.0,1.0,1897.0,383539.0,
2348.0,984.0,0.0,1898.0,383543.0,
2349.0,985.0,0.0,1900.0,383547.0,
2349.0,984.0,0.0,1904.0,383551.0,
2350.0,984.0,0.0,1906.0,383555.0,
2350.0,984.0,0.0,1906.0,383559.0,
2349.0,985.0,0.0,1911.0,383563.0,
2350.0,985.0,0.0,1910.0,383567.0,
2349.0,985.0,0.0,1912.0,383571.0,
2350.0,986.0,0.0,1912.0,383575.0,
2350.0,985.0,0.0,1911.0,383579.0,
2349.0,987.0,35.0,1911.0,383583.0,
2350.0,985.0,63.0,1910.0,383587.0,
2351.0,986.0,93.0,1912.0,383591.0,
2348.0,985.0,121.0,1912.0,383595.0,
2350.0,987.0,151.0,1914.0,383599.0,
2349.0,986.0,183.0,1915.0,383603.0,
2350.0,986.0,215.0,1917.0,383607.0,
2350.0,985.0,248.0,1920.0,383611.0,
2350.0,987.0,280.0,1921.0,383615.0,
2351.0,987.0,308.0,1923.0,383619.0,
2350.0,986.0,343.0,1928.0,383623.0,
2350.0,987.0,371.0,1935.0,383627.0,
2350.0,986.0,402.0,1943.0,383631.0,
2350.0,987.0,430.0,1944.0,383635.0,
2350.0,988.0,460.0,1949.0,383639.0,
2349.0,987.0,487.0,1951.0,383643.0,
2350.0,988.0,520.0,1954.0,383647.0,
2349.0,987.0,539.0,1955.0,383651.0,
2350.0,988.0,564.0,1952.0,383655.0,
2349.0,987.0,586.0,1953.0,383659.0,
2350.0,988.0,606.0,1951.0,383663.0,
2351.0,988.0,626.0,1951.0,383667.0,
2350.0,987.0,641.0,1952.0,383671.0,
2350.0,988.0,660.0,1950.0,383675.0,
2350.0,988.0,674.0,1946.0,383679.0,
2350.0,988.0,685.0,1945.0,383683.0,
2351.0,988.0,697.0,1941.0,383687.0,
2350.0,988.0,711.0,1943.0,383691.0,
2351.0,989.0,720.0,1942.0,383695.0,
2350.0,990.0,732.0,1937.0,383699.0,
2351.0,990.0,741.0,1939.0,383703.0,
2351.0,990.0,747.0,1936.0,383707.0,
2351.0,990.0,755.0,1936.0,383711.0,
2350.0,990.0,764.0,1935.0,383715.0,
2351.0,991.0,768.0,1935.0,383719.0,
2350.0,989.0,772.0,1932.0,383723.0,
2349.0,989.0,775.0,1933.0,383727.0,
2349.0,989.0,775.0,1933.0,383731.0,
2351.0,988.0,775.0,1931.0,383735.0,
2350.0,989.0,773.0,1934.0,383739.0,
2350.0,989.0,772.0,1937.0,383743.0,
2350.0,989.0,769.0,1936.0,383747.0,
2351.0,989.0,765.0,1936.0,383751.0,
2350.0,989.0,761.0,1940.0,383755.0,
2351.0,990.0,756.0,1943.0,383759.0,
2349.0,988.0,749.0,1948.0,383763.0,
2349.0,989.0,744.0,1958.0,383767.0,
2350.0,989.0,736.0,1973.0,383771.0,
2349.0,988.0,726.0,1987.0,383775.0,
2350.0,990.0,720.0,1999.0,383779.0,
2350.0,989.0,710.0,2019.0,383783.0,
2350.0,989.0,701.0,2041.0,383787.0,
2350.0,989.0,695.0,2069.0,383791.0,
2350.0,988.0,686.0,2093.0,383795.0,
2350.0,989.0,681.0,2129.0,383799.0,
2350.0,989.0,676.0,2159.0,383803.0,
2351.0,989.0,677.0,2195.0,383807.0,
2349.0,989.0,681.0,2232.0,383811.0,
2351.0,989.0,695.0,2265.0,383815.0,
2350.0,989.0,717.0,2298.0,383819.0,
2350.0,988.0,748.0,2330.0,383823.0,
2350.0,989.0,795.0,2363.0,383827.0,
2351.0,988.0,856.0,2395.0,383831.0,
2350.0,988.0,934.0,2428.0,383835.0,
2350.0,987.0,1025.0,2449.0,383839.0,
2350.0,988.0,1139.0,2474.0,383843.0,
2351.0,988.0,1279.0,2501.0,383847.0,
2351.0,988.0,1438.0,2520.0,383851.0,
2350.0,987.0,1620.0,2538.0,383855.0,
2350.0,988.0,1821.0,2550.0,383859.0,
2352.0,988.0,2047.0,2562.0,383863.0,
2351.0,988.0,2292.0,2571.0,383867.0,
2351.0,988.0,2556.0,2580.0,383871.0,
2351.0,987.0,2838.0,2581.0,383875.0,
2351.0,988.0,3134.0,2584.0,383879.0,
2350.0,989.0,3444.0,2586.0,383883.0,
2351.0,988.0,3761.0,2579.0,383887.0,
2351.0,988.0,3918.0,2578.0,383891.0,
2351.0,987.0,3918.0,2575.0,383895.0,
2351.0,988.0,3919.0,2569.0,383899.0,
2349.0,988.0,3919.0,2561.0,383903.0,
2351.0,989.0,3919.0,2556.0,383907.0,
2351.0,988.0,3918.0,2547.0,383911.0,
2351.0,988.0,3919.0,2537.0,383915.0,
2351.0,988.0,3919.0,2527.0,383919.0,
2355.0,988.0,3918.0,2516.0,383923.0,
2351.0,987.0,3919.0,2507.0,383927.0,
2351.0,987.0,3919.0,2495.0,383931.0,
2351.0,987.0,3918.0,2483.0,383935.0,
2351.0,988.0,3920.0,2474.0,383939.0,
2350.0,987.0,3918.0,2460.0,383943.0,
2351.0,987.0,3919.0,2444.0,383947.0,
2353.0,988.0,3919.0,2430.0,383951.0,
2351.0,988.0,3919.0,2418.0,383955.0,
2351.0,988.0,3920.0,2401.0,383959.0,
2351.0,988.0,3921.0,2386.0,383963.0,
2347.0,988.0,3920.0,2372.0,383967.0,
2349.0,990.0,3920.0,2356.0,383971.0,
2352.0,988.0,3919.0,2338.0,383975.0,
2351.0,988.0,3920.0,2321.0,383979.0,
2350.0,988.0,3920.0,2303.0,383983.0,
2351.0,988.0,3920.0,2281.0,383987.0,
2351.0,987.0,3919.0,2257.0,383991.0,
2350.0,986.0,3919.0,2236.0,383995.0,
2348.0,987.0,3920.0,2215.0,383999.0,
2352.0,986.0,3918.0,2188.0,384003.0,
2351.0,988.0,3921.0,2166.0,384007.0,
2350.0,987.0,3920.0,2145.0,384011.0,
2350.0,987.0,3919.0,2119.0,384015.0,
2350.0,988.0,3921.0,2102.0,384019.0,
2350.0,987.0,3919.0,2082.0,384023.0,
2350.0,984.0,3919.0,2060.0,384027.0,
2350.0,988.0,3920.0,2043.0,384031.0,
2348.0,986.0,3917.0,2027.0,384035.0,
2350.0,988.0,3920.0,2010.0,384039.0,
2350.0,988.0,3919.0,1997.0,384043.0,
2350.0,988.0,3919.0,1982.0,384047.0,
2347.0,988.0,3920.0,1971.0,384051.0,
2350.0,987.0,3919.0,1958.0,384055.0,
2351.0,988.0,3921.0,1950.0,384059.0,
2349.0,987.0,3919.0,1943.0,384063.0,
2351.0,989.0,3920.0,1933.0,384067.0,
2349.0,987.0,3919.0,1931.0,384071.0,
2350.0,989.0,3920.0,1925.0,384075.0,
2349.0,988.0,3918.0,1922.0,384079.0,
2349.0,988.0,3920.0,1917.0,384083.0,
2349.0,987.0,3918.0,1914.0,384087.0,
2350.0,987.0,3920.0,1911.0,384091.0,
2349.0,987.0,3918.0,1911.0,384095.0,
2350.0,988.0,3920.0,1906.0,384099.0,
2349.0,987.0,3920.0,1906.0,384103.0,
2350.0,987.0,3921.0,1902.0,384107.0,
2350.0,985.0,3918.0,1901.0,384111.0,
2350.0,986.0,3918.0,1898.0,384115.0,
2350.0,986.0,3920.0,1901.0,384119.0,
2348.0,985.0,3918.0,1898.0,384123.0,
2350.0,985.0,3920.0,1896.0,384127.0,
2350.0,986.0,3920.0,1893.0,384131.0,
2348.0,985.0,3919.0,1895.0,384135.0,
2349.0,987.0,3920.0,1893.0,384139.0,
2350.0,986.0,3918.0,1896.0,384143.0,
2349.0,987.0,3920.0,1896.0,384147.0,
2350.0,987.0,3919.0,1897.0,384151.0,
2349.0,987.0,3920.0,1900.0,384155.0,
2349.0,986.0,3919.0,1900.0,384159.0,
2349.0,987.0,3920.0,1901.0,384163.0,
2350.0,986.0,3919.0,1904.0,384167.0,
2348.0,986.0,3918.0,1908.0,384171.0,
2350.0,987.0,3921.0,1907.0,384175.0,
2349.0,986.0,3918.0,1911.0,384179.0,
2350.0,986.0,3919.0,1908.0,384183.0,
2349.0,987.0,3919.0,1906.0,384187.0,
2348.0,986.0,3916.0,1908.0,384191.0,
2350.0,987.0,3919.0,1907.0,384195.0,
2348.0,986.0,3917.0,1906.0,384199.0,
2350.0,987.0,3921.0,1905.0,384203.0,
2348.0,986.0,3917.0,1901.0,384207.0,
2350.0,987.0,3919.0,1898.0,384211.0,
2348.0,986.0,3918.0,1898.0,384215.0,
2350.0,987.0,3917.0,1893.0,384219.0,
2349.0,986.0,3918.0,1895.0,384223.0,
2349.0,986.0,3916.0,1892.0,384227.0,
2349.0,987.0,3918.0,1891.0,384231.0,
2348.0,986.0,3699.0,1891.0,384235.0,
2349.0,987.0,3438.0,1889.0,384239.0,
2349.0,986.0,3176.0,1885.0,384243.0,
2350.0,989.0,2915.0,1883.0,384247.0,
2349.0,987.0,2663.0,1881.0,384251.0,
2350.0,988.0,2420.0,1876.0,384255.0,
2348.0,987.0,2181.0,1874.0,384259.0,
2350.0,988.0,1956.0,1871.0,384263.0,
2349.0,987.0,1742.0,1867.0,384267.0,
2349.0,987.0,1536.0,1865.0,384271.0,
2348.0,987.0,1343.0,1866.0,384275.0,
2349.0,986.0,1166.0,1860.0,384279.0,
2350.0,987.0,996.0,1863.0,384283.0,
2349.0,986.0,842.0,1860.0,384287.0,
2350.0,987.0,698.0,1859.0,384291.0,
2349.0,987.0,571.0,1858.0,384295.0,
2348.0,986.0,453.0,1859.0,384299.0,
2349.0,987.0,349.0,1858.0,384303.0,
2348.0,985.0,253.0,1857.0,384307.0,
2350.0,988.0,172.0,1856.0,384311.0,
2350.0,987.0,100.0,1856.0,384315.0,
2349.0,988.0,35.0,1858.0,384319.0,
2348.0,988.0,0.0,1862.0,384323.0,
2349.0,987.0,0.0,1862.0,384327.0,
2349.0,987.0,0.0,1862.0,384331.0,
2349.0,987.0,0.0,1866.0,384335.0,
2349.0,987.0,0.0,1868.0,384339.0,
2349.0,987.0,0.0,1873.0,384343.0,
2348.0,987.0,0.0,1873.0,384347.0,
2349.0,987.0,0.0,1873.0,384351.0,
2348.0,987.0,0.0,1874.0,384355.0,
2349.0,986.0,0.0,1876.0,384359.0,
2349.0,986.0,0.0,1875.0,384363.0,
2350.0,986.0,0.0,1876.0,384367.0,
2350.0,987.0,0.0,1877.0,384371.0,
2350.0,986.0,0.0,1879.0,384375.0,
2348.0,986.0,0.0,1880.0,384379.0,
2349.0,988.0,0.0,1882.0,384383.0,
2348.0,985.0,0.0,1883.0,384387.0,
2349.0,987.0,0.0,1883.0,384391.0,
2349.0,985.0,0.0,1885.0,384395.0,
2349.0,985.0,0.0,1885.0,384399.0,
2349.0,985.0,0.0,1886.0,384403.0,
2349.0,986.0,0.0,1887.0,384407.0,
2349.0,986.0,3.0,1887.0,384411.0,
2349.0,987.0,47.0,1884.0,384415.0,
2350.0,985.0,78.0,1883.0,384419.0,
2349.0,986.0,110.0,1882.0,384423.0,
2348.0,983.0,141.0,1878.0,384427.0,
2350.0,985.0,173.0,1877.0,384431.0,
2349.0,985.0,207.0,1877.0,384435.0,
2349.0,985.0,236.0,1872.0,384439.0,
2349.0,984.0,262.0,1872.0,384443.0,
2349.0,986.0,291.0,1872.0,384447.0,
2350.0,985.0,316.0,1874.0,384451.0,
2350.0,985.0,342.0,1878.0,384455.0,
2348.0,985.0,365.0,1878.0,384459.0,
2349.0,985.0,388.0,1881.0,384463.0,
2350.0,984.0,407.0,1883.0,384467.0,
2350.0,984.0,431.0,1884.0,384471.0,
2347.0,983.0,446.0,1886.0,384475.0,
2349.0,985.0,466.0,1887.0,384479.0,
2349.0,985.0,482.0,1886.0,384483.0,
2349.0,983.0,495.0,1890.0,384487.0,
2350.0,984.0,511.0,1891.0,384491.0,
2348.0,983.0,524.0,1897.0,384495.0,
2349.0,984.0,537.0,1899.0,384499.0,
2350.0,983.0,547.0,1902.0,384503.0,
2349.0,983.0,555.0,1904.0,384507.0,
2350.0,983.0,559.0,1907.0,384511.0,
2350.0,982.0,567.0,1910.0,384515.0,
2348.0,982.0,572.0,1916.0,384519.0,
2349.0,983.0,576.0,1915.0,384523.0,
2349.0,983.0,582.0,1915.0,384527.0,
2349.0,982.0,585.0,1911.0,384531.0,
2350.0,982.0,585.0,1910.0,384535.0,
2349.0,982.0,586.0,1909.0,384539.0,
2348.0,981.0,586.0,1909.0,384543.0,
2351.0,982.0,587.0,1908.0,384547.0,
2349.0,980.0,586.0,1905.0,384551.0,
2349.0,983.0,582.0,1904.0,384555.0,
2348.0,981.0,579.0,1907.0,384559.0,
2349.0,981.0,575.0,1909.0,384563.0,
2349.0,980.0,573.0,1908.0,384567.0,
2349.0,981.0,573.0,1912.0,384571.0,
2350.0,982.0,573.0,1913.0,384575.0,
2350.0,982.0,571.0,1909.0,384579.0,
2350.0,981.0,568.0,1911.0,384583.0,
2349.0,981.0,566.0,1912.0,384587.0,
2350.0,981.0,563.0,1910.0,384591.0,
2350.0,981.0,559.0,1913.0,384595.0,
2349.0,982.0,560.0,1914.0,384599.0,
2350.0,982.0,556.0,1914.0,384603.0,
2350.0,980.0,554.0,1915.0,384607.0,
2349.0,981.0,550.0,1918.0,384611.0,
2350.0,981.0,549.0,1917.0,384615.0,
2349.0,981.0,550.0,1916.0,384619.0,
2350.0,981.0,547.0,1916.0,384623.0,
2350.0,981.0,542.0,1916.0,384627.0,
2349.0,981.0,543.0,1915.0,384631.0,
2349.0,979.0,537.0,1916.0,384635.0,
2349.0,981.0,534.0,1915.0,384639.0,
2350.0,979.0,529.0,1919.0,384643.0,
2351.0,980.0,525.0,1927.0,384647.0,
2350.0,980.0,520.0,1927.0,384651.0,
2350.0,981.0,514.0,1932.0,384655.0,
2350.0,981.0,510.0,1942.0,384659.0,
2349.0,980.0,502.0,1949.0,384663.0,
2349.0,980.0,501.0,1963.0,384667.0,
2349.0,979.0,494.0,1978.0,384671.0,
2350.0,980.0,493.0,1997.0,384675.0,
2349.0,980.0,491.0,2021.0,384679.0,
2349.0,980.0,488.0,2048.0,384683.0,
2349.0,980.0,487.0,2077.0,384687.0,
2350.0,980.0,487.0,2108.0,384691.0,
2349.0,978.0,488.0,2143.0,384695.0,
2350.0,979.0,497.0,2179.0,384699.0,
2349.0,979.0,508.0,2213.0,384703.0,
2350.0,977.0,523.0,2248.0,384707.0,
2350.0,980.0,548.0,2285.0,384711.0,
2349.0,977.0,576.0,2323.0,384715.0,
2349.0,979.0,623.0,2356.0,384719.0,
2351.0,978.0,677.0,2389.0,384723.0,
2349.0,979.0,750.0,2419.0,384727.0,
2350.0,979.0,838.0,2449.0,384731.0,
2350.0,979.0,943.0,2474.0,384735.0,
2350.0,975.0,1069.0,2497.0,384739.0,
2350.0,977.0,1217.0,2517.0,384743.0,
2350.0,976.0,1383.0,2534.0,384747.0,
2351.0,980.0,1575.0,2554.0,384751.0,
2350.0,981.0,1789.0,2565.0,384755.0,
2350.0,978.0,2022.0,2576.0,384759.0,
2350.0,977.0,2271.0,2582.0,384763.0,
2350.0,979.0,2541.0,2586.0,384767.0,
2350.0,979.0,2823.0,2591.0,384771.0,
2350.0,979.0,3115.0,2590.0,384775.0,
2350.0,978.0,3419.0,2587.0,384779.0,
2349.0,978.0,3727.0,2590.0,384783.0,
2350.0,980.0,3918.0,2586.0,384787.0,
2350.0,978.0,3917.0,2583.0,384791.0,
2349.0,979.0,3916.0,2577.0,384795.0,
2350.0,977.0,3916.0,2564.0,384799.0,
2350.0,980.0,3919.0,2560.0,384803.0,
2350.0,977.0,3918.0,2548.0,384807.0,
2351.0,982.0,3917.0,2537.0,384811.0,
2351.0,979.0,3917.0,2521.0,384815.0,
2351.0,979.0,3918.0,2511.0,384819.0,
2350.0,982.0,3917.0,2495.0,384823.0,
2351.0,980.0,3918.0,2485.0,384827.0,
2350.0,981.0,3918.0,2469.0,384831.0,
2351.0,974.0,3918.0,2456.0,384835.0,
2350.0,979.0,3918.0,2441.0,384839.0,
2350.0,980.0,3920.0,2426.0,384843.0,
2350.0,980.0,3920.0,2408.0,384847.0,
2350.0,979.0,3919.0,2392.0,384851.0,
2350.0,979.0,3919.0,2377.0,384855.0,
2349.0,979.0,3919.0,2359.0,384859.0,
2350.0,979.0,3919.0,2340.0,384863.0,
2350.0,977.0,3918.0,2323.0,384867.0,
2350.0,979.0,3920.0,2302.0,384871.0,
2349.0,978.0,3917.0,2283.0,384875.0,
2349.0,978.0,3917.0,2261.0,384879.0,
2349.0,979.0,3917.0,2237.0,384883.0,
2349.0,978.0,3918.0,2211.0,384887.0,
2349.0,978.0,3918.0,2185.0,384891.0,
2349.0,977.0,3916.0,2165.0,384895.0,
2350.0,978.0,3919.0,2138.0,384899.0,
2350.0,978.0,3920.0,2115.0,384903.0,
2351.0,978.0,3919.0,2095.0,384907.0,
2350.0,979.0,3920.0,2076.0,384911.0,
2351.0,979.0,3919.0,2057.0,384915.0,
2351.0,978.0,3920.0,2040.0,384919.0,
2350.0,977.0,3920.0,2023.0,384923.0,
2350.0,977.0,3919.0,2011.0,384927.0,
2350.0,978.0,3920.0,1999.0,384931.0,
2350.0,978.0,3919.0,1988.0,384935.0,
2349.0,978.0,3920.0,1979.0,384939.0,
2349.0,977.0,3919.0,1971.0,384943.0,
2349.0,976.0,3917.0,1965.0,384947.0,
2350.0,978.0,3919.0,1956.0,384951.0,
2349.0,977.0,3918.0,1951.0,384955.0,
2349.0,978.0,3919.0,1948.0,384959.0,
2350.0,978.0,3919.0,1940.0,384963.0,
2348.0,978.0,3919.0,1941.0,384967.0,
2350.0,979.0,3919.0,1936.0,384971.0,
2350.0,978.0,3918.0,1936.0,384975.0,
2350.0,978.0,3920.0,1934.0,384979.0,
2350.0,977.0,3919.0,1937.0,384983.0,
2350.0,976.0,3918.0,1935.0,384987.0,
2350.0,977.0,3918.0,1938.0,384991.0,
2349.0,978.0,3920.0,1938.0,384995.0,
2349.0,978.0,3919.0,1938.0,384999.0,
2349.0,977.0,3920.0,1942.0,385003.0,
2349.0,978.0,3918.0,1938.0,385007.0,
2350.0,978.0,3919.0,1941.0,385011.0,
2350.0,977.0,3917.0,1939.0,385015.0,
2348.0,977.0,3918.0,1942.0,385019.0,
2349.0,979.0,3919.0,1940.0,385023.0,
2349.0,977.0,3918.0,1939.0,385027.0,
2349.0,978.0,3918.0,1938.0,385031.0,
2350.0,977.0,3917.0,1934.0,385035.0,
2349.0,976.0,3917.0,1936.0,385039.0,
2350.0,977.0,3917.0,1933.0,385043.0,
2351.0,978.0,3919.0,1932.0,385047.0,
2349.0,977.0,3919.0,1931.0,385051.0,
2349.0,977.0,3917.0,1928.0,385055.0,
2350.0,977.0,3919.0,1929.0,385059.0,
2350.0,978.0,3920.0,1927.0,385063.0,
2350.0,977.0,3918.0,1920.0,385067.0,
2349.0,977.0,3917.0,1919.0,385071.0,
2350.0,979.0,3918.0,1915.0,385075.0,
2350.0,978.0,3918.0,1915.0,385079.0,
2349.0,977.0,3918.0,1913.0,385083.0,
2350.0,978.0,3706.0,1911.0,385087.0,
2350.0,978.0,3462.0,1906.0,385091.0,
2349.0,978.0,3215.0,1906.0,385095.0,
2350.0,977.0,2975.0,1904.0,385099.0,
2349.0,978.0,2742.0,1902.0,385103.0,
2349.0,979.0,2518.0,1897.0,385107.0,
2349.0,979.0,2305.0,1898.0,385111.0,
2348.0,977.0,2100.0,1896.0,385115.0,
2350.0,977.0,1904.0,1887.0,385119.0,
2349.0,978.0,1725.0,1884.0,385123.0,
2349.0,977.0,1554.0,1885.0,385127.0,
2349.0,977.0,1397.0,1883.0,385131.0,
2350.0,977.0,1249.0,1883.0,385135.0,
2349.0,978.0,1112.0,1883.0,385139.0,
2349.0,977.0,988.0,1881.0,385143.0,
2349.0,978.0,877.0,1877.0,385147.0,
2350.0,978.0,777.0,1876.0,385151.0,
2349.0,977.0,686.0,1877.0,385155.0,
2350.0,977.0,603.0,1880.0,385159.0,
2349.0,978.0,530.0,1880.0,385163.0,
2349.0,977.0,465.0,1882.0,385167.0,
2349.0,978.0,406.0,1886.0,385171.0,
2349.0,979.0,360.0,1885.0,385175.0,
2349.0,979.0,318.0,1891.0,385179.0,
2348.0,977.0,281.0,1888.0,385183.0,
2350.0,978.0,253.0,1889.0,385187.0,
2350.0,979.0,229.0,1889.0,385191.0,
2349.0,978.0,211.0,1886.0,385195.0,
2349.0,978.0,194.0,1887.0,385199.0,
2349.0,979.0,186.0,1886.0,385203.0,
2350.0,978.0,179.0,1885.0,385207.0,
2349.0,979.0,178.0,1888.0,385211.0,
2350.0,977.0,179.0,1886.0,385215.0,
2350.0,978.0,184.0,1887.0,385219.0,
2350.0,979.0,189.0,1885.0,385223.0,
2349.0,978.0,198.0,1886.0,385227.0,
2349.0,980.0,208.0,1889.0,385231.0,
2348.0,977.0,218.0,1889.0,385235.0,
2349.0,979.0,232.0,1890.0,385239.0,
2350.0,977.0,245.0,1890.0,385243.0,
2349.0,979.0,262.0,1892.0,385247.0,
2349.0,979.0,279.0,1893.0,385251.0,
2348.0,978.0,293.0,1891.0,385255.0,
2349.0,978.0,310.0,1894.0,385259.0,
2349.0,976.0,320.0,1895.0,385263.0,
2348.0,978.0,335.0,1898.0,385267.0,
2348.0,977.0,347.0,1896.0,385271.0,
2348.0,978.0,363.0,1897.0,385275.0,
2350.0,979.0,378.0,1896.0,385279.0,
2349.0,978.0,388.0,1896.0,385283.0,
2350.0,978.0,402.0,1899.0,385287.0,
2350.0,978.0,413.0,1900.0,385291.0,
2350.0,977.0,427.0,1899.0,385295.0,
2349.0,978.0,438.0,1900.0,385299.0,
2349.0,978.0,450.0,1897.0,385303.0,
2350.0,978.0,456.0,1899.0,385307.0,
2349.0,977.0,468.0,1898.0,385311.0,
2350.0,979.0,478.0,1895.0,385315.0,
2348.0,977.0,489.0,1895.0,385319.0,
2350.0,979.0,497.0,1894.0,385323.0,
2349.0,978.0,508.0,1893.0,385327.0,
2349.0,979.0,521.0,1893.0,385331.0,
2348.0,978.0,527.0,1892.0,385335.0,
2349.0,979.0,540.0,1891.0,385339.0,
2349.0,979.0,554.0,1890.0,385343.0,
2350.0,981.0,566.0,1890.0,385347.0,
2349.0,980.0,581.0,1892.0,385351.0,
2349.0,980.0,593.0,1893.0,385355.0,
2349.0,979.0,603.0,1893.0,385359.0,
2350.0,980.0,616.0,1897.0,385363.0,
2350.0,980.0,624.0,1900.0,385367.0,
2350.0,980.0,632.0,1899.0,385371.0,
2350.0,980.0,639.0,1899.0,385375.0,
2350.0,980.0,644.0,1902.0,385379.0,
2349.0,980.0,647.0,1902.0,385383.0,
2349.0,980.0,654.0,1903.0,385387.0,
2348.0,978.0,658.0,1905.0,385391.0,
2349.0,981.0,662.0,1906.0,385395.0,
2349.0,980.0,665.0,1912.0,385399.0,
2349.0,980.0,666.0,1914.0,385403.0,
2349.0,980.0,669.0,1913.0,385407.0,
2349.0,980.0,669.0,1915.0,385411.0,
2349.0,981.0,671.0,1918.0,385415.0,
2349.0,980.0,669.0,1914.0,385419.0,
2350.0,981.0,671.0,1912.0,385423.0,
2348.0,980.0,668.0,1915.0,385427.0,
2349.0,981.0,668.0,1908.0,385431.0,
2349.0,980.0,667.0,1905.0,385435.0,
2350.0,980.0,669.0,1900.0,385439.0,
2349.0,979.0,667.0,1898.0,385443.0,
2349.0,980.0,667.0,1898.0,385447.0,
2350.0,980.0,665.0,1899.0,385451.0,
2350.0,979.0,665.0,1901.0,385455.0,
2350.0,981.0,663.0,1900.0,385459.0,
2350.0,980.0,665.0,1900.0,385463.0,
2350.0,980.0,665.0,1903.0,385467.0,
2349.0,980.0,663.0,1904.0,385471.0,
2350.0,979.0,664.0,1903.0,385475.0,
2350.0,980.0,660.0,1907.0,385479.0,
2349.0,980.0,657.0,1916.0,385483.0,
2348.0,979.0,650.0,1920.0,385487.0,
2349.0,980.0,648.0,1929.0,385491.0,
2349.0,980.0,641.0,1934.0,385495.0,
2349.0,980.0,637.0,1944.0,385499.0,
2349.0,980.0,631.0,1954.0,385503.0,
2349.0,979.0,626.0,1969.0,385507.0,
2349.0,980.0,622.0,1986.0,385511.0,
2350.0,979.0,620.0,2001.0,385515.0,
2350.0,980.0,616.0,2023.0,385519.0,
2349.0,980.0,609.0,2046.0,385523.0,
2350.0,980.0,603.0,2068.0,385527.0,
2350.0,980.0,600.0,2092.0,385531.0,
2350.0,980.0,597.0,2118.0,385535.0,
2350.0,980.0,595.0,2150.0,385539.0,
2350.0,980.0,595.0,2177.0,385543.0,
2349.0,980.0,603.0,2210.0,385547.0,
2350.0,980.0,611.0,2245.0,385551.0,
2351.0,980.0,626.0,2278.0,385555.0,
2350.0,980.0,655.0,2308.0,385559.0,
2348.0,978.0,688.0,2336.0,385563.0,
2350.0,980.0,734.0,2364.0,385567.0,
2349.0,980.0,796.0,2391.0,385571.0,
2349.0,979.0,869.0,2414.0,385575.0,
2350.0,979.0,960.0,2433.0,385579.0,
2350.0,978.0,1070.0,2451.0,385583.0,
2350.0,978.0,1200.0,2465.0,385587.0,
2351.0,978.0,1343.0,2484.0,385591.0,
2350.0,978.0,1508.0,2493.0,385595.0,
2350.0,977.0,1683.0,2502.0,385599.0,
2350.0,977.0,1883.0,2508.0,385603.0,
2348.0,976.0,2097.0,2514.0,385607.0,
2350.0,978.0,2326.0,2515.0,385611.0,
2350.0,978.0,2566.0,2513.0,385615.0,
2349.0,978.0,2818.0,2512.0,385619.0,
2350.0,977.0,3077.0,2509.0,385623.0,
2350.0,978.0,3343.0,2506.0,385627.0,
2351.0,978.0,3612.0,2500.0,385631.0,
2350.0,978.0,3871.0,2492.0,385635.0,
2349.0,978.0,3920.0,2486.0,385639.0,
2349.0,977.0,3914.0,2476.0,385643.0,
2350.0,977.0,3918.0,2466.0,385647.0,
2350.0,977.0,3916.0,2455.0,385651.0,
2350.0,977.0,3917.0,2440.0,385655.0,
2349.0,975.0,3917.0,2429.0,385659.0,
2349.0,976.0,3916.0,2414.0,385663.0,
2350.0,977.0,3921.0,2398.0,385667.0,
2350.0,975.0,3916.0,2379.0,385671.0,
2350.0,976.0,3918.0,2364.0,385675.0,
2350.0,975.0,3917.0,2344.0,385679.0,
2350.0,976.0,3918.0,2328.0,385683.0,
2351.0,975.0,3918.0,2307.0,385687.0,
2350.0,976.0,3915.0,2290.0,385691.0,
2351.0,976.0,3918.0,2270.0,385695.0,
2350.0,975.0,3919.0,2254.0,385699.0,
2350.0,976.0,3919.0,2233.0,385703.0,
2351.0,976.0,3918.0,2215.0,385707.0,
2350.0,976.0,3919.0,2196.0,385711.0,
2350.0,976.0,3918.0,2178.0,385715.0,
2349.0,976.0,3919.0,2156.0,385719.0,
2350.0,976.0,3918.0,2135.0,385723.0,
2350.0,977.0,3919.0,2115.0,385727.0,
2349.0,976.0,3917.0,2096.0,385731.0,
2349.0,976.0,3918.0,2072.0,385735.0,
2349.0,975.0,3918.0,2057.0,385739.0,
2349.0,975.0,3918.0,2041.0,385743.0,
2349.0,975.0,3919.0,2023.0,385747.0,
2351.0,975.0,3918.0,2007.0,385751.0,
2351.0,975.0,3917.0,1993.0,385755.0,
2350.0,975.0,3918.0,1980.0,385759.0,
2350.0,976.0,3916.0,1970.0,385763.0,
2350.0,975.0,3919.0,1962.0,385767.0,
2350.0,974.0,3918.0,1949.0,385771.0,
2350.0,975.0,3919.0,1945.0,385775.0,
2350.0,974.0,3918.0,1936.0,385779.0,
2350.0,974.0,3917.0,1933.0,385783.0,
2350.0,975.0,3918.0,1931.0,385787.0,
2350.0,975.0,3919.0,1929.0,385791.0,
2350.0,975.0,3918.0,1923.0,385795.0,
2349.0,976.0,3919.0,1921.0,385799.0,
2350.0,974.0,3918.0,1923.0,385803.0,
2350.0,975.0,3920.0,1923.0,385807.0,
2349.0,975.0,3918.0,1923.0,385811.0,
2350.0,974.0,3918.0,1923.0,385815.0,
2349.0,974.0,3916.0,1925.0,385819.0,
2350.0,974.0,3917.0,1928.0,385823.0,
2348.0,974.0,3918.0,1931.0,385827.0,
2350.0,974.0,3917.0,1930.0,385831.0,
2350.0,975.0,3918.0,1934.0,385835.0,
2350.0,974.0,3918.0,1936.0,385839.0,
2349.0,973.0,3918.0,1939.0,385843.0,
2350.0,975.0,3919.0,1942.0,385847.0,
2349.0,976.0,3918.0,1941.0,385851.0,
2350.0,976.0,3918.0,1946.0,385855.0,
2350.0,974.0,3919.0,1946.0,385859.0,
2349.0,974.0,3919.0,1946.0,385863.0,
2350.0,975.0,3917.0,1947.0,385867.0,
2350.0,975.0,3704.0,1948.0,385871.0,
2350.0,975.0,3478.0,1948.0,385875.0,
2350.0,974.0,3256.0,1945.0,385879.0,
2349.0,974.0,3042.0,1948.0,385883.0,
2349.0,974.0,2834.0,1947.0,385887.0,
2349.0,974.0,2636.0,1950.0,385891.0,
2349.0,974.0,2449.0,1948.0,385895.0,
2350.0,974.0,2277.0,1946.0,385899.0,
2349.0,973.0,2114.0,1949.0,385903.0,
2349.0,973.0,1964.0,1946.0,385907.0,
2350.0,972.0,1825.0,1943.0,385911.0,
2349.0,971.0,1698.0,1945.0,385915.0,
2350.0,972.0,1580.0,1946.0,385919.0,
2349.0,970.0,1476.0,1945.0,385923.0,
2350.0,972.0,1382.0,1946.0,385927.0,
2350.0,973.0,1294.0,1946.0,385931.0,
2350.0,973.0,1218.0,1945.0,385935.0,
2350.0,973.0,1153.0,1948.0,385939.0,
2350.0,973.0,1089.0,1947.0,385943.0,
2350.0,972.0,1036.0,1944.0,385947.0,
2350.0,973.0,989.0,1944.0,385951.0,
2349.0,972.0,946.0,1942.0,385955.0,
2349.0,972.0,910.0,1941.0,385959.0,
2350.0,973.0,880.0,1938.0,385963.0,
2350.0,973.0,851.0,1937.0,385967.0,
2350.0,973.0,830.0,1936.0,385971.0,
2350.0,972.0,811.0,1930.0,385975.0,
2349.0,972.0,797.0,1929.0,385979.0,
2349.0,971.0,782.0,1925.0,385983.0,
2350.0,973.0,774.0,1922.0,385987.0,
2349.0,974.0,768.0,1918.0,385991.0,
2350.0,972.0,763.0,1916.0,385995.0,
2348.0,971.0,759.0,1911.0,385999.0,
2349.0,971.0,755.0,1904.0,386003.0,
2350.0,970.0,757.0,1899.0,386007.0,
2350.0,969.0,757.0,1895.0,386011.0,
2349.0,971.0,761.0,1892.0,386015.0,
2349.0,971.0,766.0,1892.0,386019.0,
2349.0,972.0,767.0,1891.0,386023.0,
2350.0,971.0,769.0,1890.0,386027.0,
2348.0,971.0,768.0,1889.0,386031.0,
2350.0,971.0,768.0,1894.0,386035.0,
2348.0,970.0,768.0,1892.0,386039.0,
2349.0,971.0,768.0,1897.0,386043.0,
2349.0,969.0,765.0,1897.0,386047.0,
2350.0,971.0,765.0,1899.0,386051.0,
2349.0,969.0,760.0,1902.0,386055.0,
2349.0,971.0,759.0,1905.0,386059.0,
2349.0,971.0,756.0,1906.0,386063.0,
2350.0,972.0,753.0,1914.0,386067.0,
2349.0,972.0,750.0,1915.0,386071.0,
2350.0,972.0,745.0,1917.0,386075.0,
2349.0,971.0,742.0,1920.0,386079.0,
2348.0,970.0,736.0,1925.0,386083.0,
2350.0,970.0,735.0,1927.0,386087.0,
2350.0,971.0,728.0,1928.0,386091.0,
2349.0,970.0,724.0,1929.0,386095.0,
2348.0,970.0,716.0,1931.0,386099.0,
2349.0,971.0,712.0,1935.0,386103.0,
2349.0,970.0,707.0,1934.0,386107.0,
2348.0,970.0,701.0,1937.0,386111.0,
2349.0,969.0,698.0,1936.0,386115.0,
2349.0,971.0,696.0,1937.0,386119.0,
2348.0,969.0,693.0,1940.0,386123.0,
2349.0,971.0,692.0,1941.0,386127.0,
2349.0,970.0,687.0,1945.0,386131.0,
2350.0,972.0,689.0,1942.0,386135.0,
2348.0,969.0,688.0,1947.0,386139.0,
2349.0,971.0,691.0,1945.0,386143.0,
2349.0,969.0,689.0,1947.0,386147.0,
2350.0,971.0,691.0,1948.0,386151.0,
2348.0,971.0,692.0,1950.0,386155.0,
2350.0,970.0,696.0,1945.0,386159.0,
2349.0,970.0,696.0,1947.0,386163.0,
2349.0,970.0,701.0,1946.0,386167.0,
2350.0,971.0,701.0,1947.0,386171.0,
2349.0,970.0,704.0,1942.0,386175.0,
2350.0,971.0,706.0,1943.0,386179.0,
2349.0,971.0,706.0,1940.0,386183.0,
2349.0,970.0,708.0,1939.0,386187.0,
2349.0,971.0,709.0,1939.0,386191.0,
2350.0,970.0,708.0,1933.0,386195.0,
2349.0,971.0,709.0,1930.0,386199.0,
2350.0,971.0,708.0,1928.0,386203.0,
2348.0,969.0,708.0,1924.0,386207.0,
2349.0,970.0,709.0,1926.0,386211.0,
2349.0,969.0,708.0,1926.0,386215.0,
2350.0,969.0,714.0,1925.0,386219.0,
2350.0,971.0,720.0,1921.0,386223.0,
2349.0,970.0,723.0,1925.0,386227.0,
2351.0,971.0,730.0,1927.0,386231.0,
2350.0,971.0,734.0,1932.0,386235.0,
2350.0,970.0,738.0,1934.0,386239.0,
2350.0,970.0,742.0,1935.0,386243.0,
2349.0,971.0,746.0,1942.0,386247.0,
2350.0,970.0,749.0,1948.0,386251.0,
2350.0,970.0,749.0,1952.0,386255.0,
2350.0,970.0,752.0,1961.0,386259.0,
2350.0,970.0,752.0,1971.0,386263.0,
2349.0,970.0,752.0,1980.0,386267.0,
2350.0,970.0,753.0,1995.0,386271.0,
2350.0,969.0,750.0,2008.0,386275.0,
2348.0,969.0,747.0,2027.0,386279.0,
2350.0,970.0,748.0,2048.0,386283.0,
2350.0,971.0,749.0,2073.0,386287.0,
2349.0,969.0,749.0,2099.0,386291.0,
2350.0,970.0,751.0,2131.0,386295.0,
2349.0,970.0,754.0,2157.0,386299.0,
2350.0,969.0,763.0,2194.0,386303.0,
2351.0,969.0,773.0,2228.0,386307.0,
2349.0,969.0,789.0,2261.0,386311.0,
2350.0,971.0,809.0,2293.0,386315.0,
2349.0,970.0,842.0,2325.0,386319.0,
2351.0,971.0,879.0,2353.0,386323.0,
2350.0,971.0,927.0,2383.0,386327.0,
2350.0,969.0,989.0,2409.0,386331.0,
2351.0,969.0,1063.0,2430.0,386335.0,
2350.0,970.0,1153.0,2454.0,386339.0,
2351.0,970.0,1259.0,2474.0,386343.0,
2350.0,970.0,1386.0,2489.0,386347.0,
2349.0,970.0,1528.0,2506.0,386351.0,
2350.0,970.0,1692.0,2521.0,386355.0,
2349.0,969.0,1875.0,2529.0,386359.0,
2350.0,971.0,2079.0,2538.0,386363.0,
2350.0,970.0,2294.0,2545.0,386367.0,
2350.0,970.0,2533.0,2547.0,386371.0,
2351.0,969.0,2780.0,2550.0,386375.0,
2350.0,969.0,3039.0,2549.0,386379.0,
2351.0,970.0,3309.0,2546.0,386383.0,
2350.0,969.0,3586.0,2544.0,386387.0,
2350.0,971.0,3865.0,2539.0,386391.0,
2351.0,970.0,3918.0,2529.0,386395.0,
2351.0,971.0,3919.0,2523.0,386399.0,
2351.0,970.0,3918.0,2508.0,386403.0,
2350.0,971.0,3920.0,2498.0,386407.0,
2350.0,972.0,3918.0,2483.0,386411.0,
2351.0,971.0,3918.0,2473.0,386415.0,
2351.0,971.0,3919.0,2453.0,386419.0,
2351.0,972.0,3919.0,2437.0,386423.0,
2352.0,973.0,3919.0,2425.0,386427.0,
2350.0,973.0,3919.0,2409.0,386431.0,
2350.0,972.0,3918.0,2392.0,386435.0,
2350.0,971.0,3918.0,2373.0,386439.0,
2350.0,972.0,3917.0,2356.0,386443.0,
2350.0,972.0,3919.0,2339.0,386447.0,
2351.0,972.0,3918.0,2318.0,386451.0,
2351.0,972.0,3918.0,2300.0,386455.0,
2351.0,972.0,3918.0,2281.0,386459.0,
2350.0,972.0,3918.0,2260.0,386463.0,
2350.0,972.0,3917.0,2243.0,386467.0,
2350.0,972.0,3918.0,2225.0,386471.0,
2351.0,973.0,3920.0,2204.0,386475.0,
2351.0,973.0,3919.0,2184.0,386479.0,
2351.0,973.0,3919.0,2163.0,386483.0,
2350.0,974.0,3918.0,2147.0,386487.0,
2352.0,972.0,3919.0,2127.0,386491.0,
2351.0,973.0,3920.0,2108.0,386495.0,
2350.0,973.0,3920.0,2088.0,386499.0,
2350.0,974.0,3919.0,2068.0,386503.0,
2350.0,974.0,3920.0,2049.0,386507.0,
2350.0,974.0,3920.0,2033.0,386511.0,
2351.0,975.0,3919.0,2021.0,386515.0,
2350.0,974.0,3919.0,2005.0,386519.0,
2349.0,973.0,3917.0,1994.0,386523.0,
2350.0,975.0,3920.0,1982.0,386527.0,
2349.0,974.0,3919.0,1970.0,386531.0,
2350.0,976.0,3919.0,1963.0,386535.0,
2350.0,975.0,3920.0,1958.0,386539.0,
2349.0,974.0,3919.0,1952.0,386543.0,
2351.0,975.0,3920.0,1949.0,386547.0,
2350.0,975.0,3919.0,1945.0,386551.0,
2350.0,975.0,3920.0,1944.0,386555.0,
2351.0,976.0,3919.0,1944.0,386559.0,
2350.0,975.0,3919.0,1946.0,386563.0,
2351.0,975.0,3919.0,1946.0,386567.0,
2350.0,974.0,3919.0,1941.0,386571.0,
2350.0,975.0,3918.0,1943.0,386575.0,
2350.0,975.0,3918.0,1947.0,386579.0,
2350.0,976.0,3919.0,1946.0,386583.0,
2350.0,976.0,3920.0,1952.0,386587.0,
2351.0,975.0,3918.0,1954.0,386591.0,
2349.0,975.0,3918.0,1958.0,386595.0,
2350.0,976.0,3919.0,1961.0,386599.0,
2349.0,975.0,3918.0,1964.0,386603.0,
2350.0,975.0,3918.0,1966.0,386607.0,
2350.0,974.0,3917.0,1963.0,386611.0,
2350.0,976.0,3920.0,1967.0,386615.0,
2349.0,974.0,3919.0,1967.0,386619.0,
2350.0,974.0,3917.0,1968.0,386623.0,
2350.0,976.0,3918.0,1970.0,386627.0,
2350.0,976.0,3919.0,1970.0,386631.0,
2350.0,976.0,3919.0,1971.0,386635.0,
2350.0,976.0,3919.0,1967.0,386639.0,
2350.0,976.0,3917.0,1967.0,386643.0,
2348.0,975.0,3918.0,1964.0,386647.0,
2349.0,975.0,3918.0,1965.0,386651.0,
2350.0,976.0,3919.0,1962.0,386655.0,
2349.0,977.0,3918.0,1960.0,386659.0,
2349.0,978.0,3918.0,1960.0,386663.0,
2349.0,977.0,3918.0,1957.0,386667.0,
2350.0,977.0,3919.0,1956.0,386671.0,
2350.0,976.0,3917.0,1951.0,386675.0,
2350.0,978.0,3919.0,1951.0,386679.0,
2350.0,976.0,3917.0,1948.0,386683.0,
2349.0,977.0,3821.0,1948.0,386687.0,
2350.0,976.0,3603.0,1944.0,386691.0,
2350.0,976.0,3382.0,1940.0,386695.0,
2349.0,978.0,3166.0,1936.0,386699.0,
2350.0,977.0,2954.0,1929.0,386703.0,
2350.0,977.0,2752.0,1926.0,386707.0,
2350.0,977.0,2552.0,1920.0,386711.0,
2351.0,976.0,2363.0,1913.0,386715.0,
2350.0,978.0,2183.0,1910.0,386719.0,
2349.0,978.0,2013.0,1903.0,386723.0,
2350.0,978.0,1855.0,1898.0,386727.0,
2349.0,978.0,1704.0,1897.0,386731.0,
2349.0,977.0,1566.0,1894.0,386735.0,
2350.0,978.0,1435.0,1889.0,386739.0,
2350.0,979.0,1317.0,1885.0,386743.0,
2350.0,978.0,1203.0,1882.0,386747.0,
2349.0,978.0,1103.0,1879.0,386751.0,
2350.0,977.0,1008.0,1872.0,386755.0,
2349.0,978.0,924.0,1873.0,386759.0,
2349.0,978.0,849.0,1869.0,386763.0,
2349.0,978.0,777.0,1866.0,386767.0,
2350.0,979.0,717.0,1866.0,386771.0,
2350.0,977.0,660.0,1861.0,386775.0,
2349.0,978.0,611.0,1863.0,386779.0,
2349.0,979.0,568.0,1865.0,386783.0,
2349.0,979.0,532.0,1863.0,386787.0,
2349.0,979.0,500.0,1862.0,386791.0,
2350.0,980.0,472.0,1863.0,386795.0,
2349.0,978.0,451.0,1864.0,386799.0,
2349.0,979.0,435.0,1865.0,386803.0,
2350.0,980.0,423.0,1867.0,386807.0,
2349.0,979.0,412.0,1872.0,386811.0,
2349.0,978.0,404.0,1876.0,386815.0,
2349.0,979.0,399.0,1877.0,386819.0,
2348.0,979.0,397.0,1878.0,386823.0,
2350.0,980.0,399.0,1882.0,386827.0,
2348.0,979.0,399.0,1881.0,386831.0,
2349.0,979.0,404.0,1888.0,386835.0,
2350.0,979.0,409.0,1888.0,386839.0,
2349.0,979.0,414.0,1892.0,386843.0,
2349.0,979.0,420.0,1895.0,386847.0,
2349.0,979.0,427.0,1897.0,386851.0,
2350.0,980.0,437.0,1900.0,386855.0,
2350.0,980.0,447.0,1905.0,386859.0,
2349.0,979.0,456.0,1907.0,386863.0,
2349.0,982.0,468.0,1911.0,386867.0,
2350.0,981.0,477.0,1915.0,386871.0,
2350.0,980.0,490.0,1920.0,386875.0,
2349.0,982.0,503.0,1924.0,386879.0,
2349.0,981.0,516.0,1925.0,386883.0,
2349.0,980.0,527.0,1928.0,386887.0,
2349.0,980.0,537.0,1928.0,386891.0,
2350.0,981.0,552.0,1932.0,386895.0,
2350.0,981.0,564.0,1934.0,386899.0,
2350.0,980.0,573.0,1932.0,386903.0,
2349.0,980.0,583.0,1934.0,386907.0,
2349.0,982.0,590.0,1932.0,386911.0,
2349.0,982.0,598.0,1933.0,386915.0,
2350.0,982.0,605.0,1933.0,386919.0,
2349.0,983.0,612.0,1934.0,386923.0,
2348.0,980.0,615.0,1933.0,386927.0,
2350.0,981.0,622.0,1933.0,386931.0,
2350.0,980.0,626.0,1934.0,386935.0,
2349.0,980.0,631.0,1934.0,386939.0,
2350.0,980.0,637.0,1936.0,386943.0,
2349.0,982.0,647.0,1938.0,386947.0,
2350.0,982.0,650.0,1939.0,386951.0,
2349.0,981.0,657.0,1938.0,386955.0,
2350.0,982.0,662.0,1939.0,386959.0,
2349.0,981.0,669.0,1937.0,386963.0,
2349.0,980.0,671.0,1941.0,386967.0,
2349.0,982.0,680.0,1938.0,386971.0,
2349.0,981.0,687.0,1940.0,386975.0,
2349.0,980.0,690.0,1935.0,386979.0,
2350.0,981.0,698.0,1933.0,386983.0,
2349.0,982.0,710.0,1936.0,386987.0,
2349.0,980.0,713.0,1938.0,386991.0,
2349.0,981.0,720.0,1937.0,386995.0,
2349.0,982.0,726.0,1935.0,386999.0,
2349.0,982.0,730.0,1936.0,387003.0,
2350.0,983.0,732.0,1936.0,387007.0,
2351.0,982.0,735.0,1938.0,387011.0,
2349.0,981.0,736.0,1936.0,387015.0,
2348.0,981.0,738.0,1939.0,387019.0,
2350.0,981.0,739.0,1935.0,387023.0,
2350.0,983.0,743.0,1940.0,387027.0,
2350.0,984.0,742.0,1942.0,387031.0,
2349.0,984.0,741.0,1942.0,387035.0,
2349.0,982.0,741.0,1942.0,387039.0,
2350.0,982.0,741.0,1943.0,387043.0,
2349.0,983.0,739.0,1948.0,387047.0,
2350.0,983.0,738.0,1950.0,387051.0,
2349.0,984.0,736.0,1952.0,387055.0,
2350.0,984.0,732.0,1953.0,387059.0,
2350.0,985.0,730.0,1954.0,387063.0,
2349.0,984.0,725.0,1956.0,387067.0,
2349.0,985.0,723.0,1960.0,387071.0,
2349.0,984.0,718.0,1966.0,387075.0,
2350.0,985.0,715.0,1968.0,387079.0,
2350.0,984.0,712.0,1975.0,387083.0,
2350.0,984.0,706.0,1982.0,387087.0,
2350.0,983.0,702.0,1993.0,387091.0,
2350.0,984.0,697.0,2006.0,387095.0,
2350.0,983.0,694.0,2022.0,387099.0,
2349.0,983.0,691.0,2041.0,387103.0,
2350.0,983.0,685.0,2062.0,387107.0,
2349.0,983.0,678.0,2087.0,387111.0,
2349.0,983.0,675.0,2121.0,387115.0,
2349.0,983.0,675.0,2150.0,387119.0,
2349.0,983.0,674.0,2186.0,387123.0,
2349.0,983.0,684.0,2220.0,387127.0,
2349.0,984.0,695.0,2253.0,387131.0,
2348.0,983.0,712.0,2293.0,387135.0,
2349.0,984.0,740.0,2331.0,387139.0,
2348.0,983.0,774.0,2365.0,387143.0,
2349.0,984.0,821.0,2401.0,387147.0,
2349.0,982.0,882.0,2429.0,387151.0,
2349.0,983.0,958.0,2463.0,387155.0,
2349.0,985.0,1052.0,2492.0,387159.0,
2349.0,985.0,1165.0,2519.0,387163.0,
2349.0,985.0,1298.0,2547.0,387167.0,
2349.0,985.0,1453.0,2568.0,387171.0,
2348.0,984.0,1632.0,2587.0,387175.0,
2348.0,984.0,1830.0,2605.0,387179.0,
2349.0,986.0,2056.0,2619.0,387183.0,
2348.0,985.0,2305.0,2633.0,387187.0,
2348.0,984.0,2570.0,2643.0,387191.0,
2349.0,985.0,2863.0,2652.0,387195.0,
2349.0,984.0,3167.0,2656.0,387199.0,
2347.0,984.0,3485.0,2657.0,387203.0,
2348.0,984.0,3811.0,2659.0,387207.0,
2348.0,985.0,3918.0,2657.0,387211.0,
2348.0,986.0,3918.0,2652.0,387215.0,
2348.0,985.0,3917.0,2645.0,387219.0,
2348.0,986.0,3918.0,2637.0,387223.0,
2349.0,985.0,3919.0,2627.0,387227.0,
2349.0,986.0,3917.0,2623.0,387231.0,
2349.0,985.0,3920.0,2609.0,387235.0,
2348.0,986.0,3917.0,2602.0,387239.0,
2348.0,985.0,3917.0,2592.0,387243.0,
2349.0,984.0,3918.0,2575.0,387247.0,
2349.0,983.0,3917.0,2564.0,387251.0,
2349.0,983.0,3917.0,2550.0,387255.0,
2350.0,985.0,3919.0,2535.0,387259.0,
2349.0,984.0,3918.0,2517.0,387263.0,
2349.0,984.0,3919.0,2501.0,387267.0,
2349.0,984.0,3918.0,2483.0,387271.0,
2350.0,984.0,3919.0,2465.0,387275.0,
2349.0,985.0,3920.0,2451.0,387279.0,
2349.0,984.0,3919.0,2435.0,387283.0,
2348.0,984.0,3920.0,2418.0,387287.0,
2349.0,985.0,3921.0,2402.0,387291.0,
2348.0,985.0,3919.0,2385.0,387295.0,
2349.0,985.0,3920.0,2368.0,387299.0,
2348.0,985.0,3920.0,2351.0,387303.0,
2349.0,985.0,3920.0,2335.0,387307.0,
2349.0,984.0,3919.0,2315.0,387311.0,
2347.0,984.0,3919.0,2295.0,387315.0,
2349.0,984.0,3921.0,2276.0,387319.0,
2348.0,984.0,3920.0,2254.0,387323.0,
2350.0,983.0,3920.0,2230.0,387327.0,
2349.0,985.0,3920.0,2208.0,387331.0,
2349.0,983.0,3919.0,2184.0,387335.0,
2349.0,984.0,3920.0,2163.0,387339.0,
2348.0,984.0,3921.0,2141.0,387343.0,
2349.0,981.0,3918.0,2122.0,387347.0,
2348.0,983.0,3921.0,2101.0,387351.0,
2348.0,983.0,3920.0,2078.0,387355.0,
2347.0,982.0,3920.0,2063.0,387359.0,
2349.0,983.0,3920.0,2046.0,387363.0,
2347.0,984.0,3918.0,2029.0,387367.0,
2348.0,984.0,3921.0,2014.0,387371.0,
2347.0,981.0,3919.0,2000.0,387375.0,
2348.0,983.0,3920.0,1990.0,387379.0,
2346.0,981.0,3919.0,1980.0,387383.0,
2348.0,982.0,3919.0,1967.0,387387.0,
2348.0,983.0,3920.0,1961.0,387391.0,
2347.0,982.0,3919.0,1955.0,387395.0,
2348.0,982.0,3919.0,1947.0,387399.0,
2348.0,983.0,3919.0,1941.0,387403.0,
2348.0,982.0,3919.0,1936.0,387407.0,
2348.0,982.0,3919.0,1934.0,387411.0,
2347.0,982.0,3919.0,1929.0,387415.0,
2346.0,982.0,3919.0,1927.0,387419.0,
2348.0,983.0,3921.0,1927.0,387423.0,
2348.0,982.0,3920.0,1926.0,387427.0,
2348.0,984.0,3920.0,1918.0,387431.0,
2347.0,983.0,3917.0,1911.0,387435.0,
2348.0,982.0,3920.0,1914.0,387439.0,
2347.0,984.0,3921.0,1912.0,387443.0,
2347.0,984.0,3919.0,1910.0,387447.0,
2347.0,985.0,3920.0,1907.0,387451.0,
2347.0,984.0,3920.0,1905.0,387455.0,
2347.0,985.0,3920.0,1904.0,387459.0,
2347.0,985.0,3920.0,1897.0,387463.0,
2347.0,986.0,3921.0,1896.0,387467.0,
2346.0,985.0,3920.0,1890.0,387471.0,
2346.0,985.0,3919.0,1890.0,387475.0,
2346.0,986.0,3920.0,1886.0,387479.0,
2347.0,986.0,3921.0,1884.0,387483.0,
2346.0,985.0,3919.0,1881.0,387487.0,
2347.0,985.0,3918.0,1876.0,387491.0,
2346.0,986.0,3918.0,1872.0,387495.0,
2347.0,985.0,3919.0,1869.0,387499.0,
2347.0,986.0,3919.0,1868.0,387503.0,
2347.0,986.0,3919.0,1866.0,387507.0,
2347.0,986.0,3920.0,1866.0,387511.0,
2346.0,986.0,3919.0,1861.0,387515.0,
2347.0,988.0,3920.0,1859.0,387519.0,
2346.0,987.0,3920.0,1855.0,387523.0,
2348.0,988.0,3920.0,1852.0,387527.0,
2347.0,986.0,3920.0,1849.0,387531.0,
2347.0,987.0,3919.0,1849.0,387535.0,
2346.0,987.0,3920.0,1845.0,387539.0,
2348.0,987.0,3918.0,1841.0,387543.0,
2348.0,986.0,3919.0,1843.0,387547.0,
2348.0,987.0,3918.0,1841.0,387551.0,
2348.0,987.0,3920.0,1842.0,387555.0,
2348.0,986.0,3918.0,1840.0,387559.0,
2347.0,987.0,3918.0,1842.0,387563.0,
2348.0,987.0,3918.0,1838.0,387567.0,
2348.0,986.0,3917.0,1838.0,387571.0,
2349.0,988.0,3919.0,1836.0,387575.0,
2350.0,987.0,3918.0,1833.0,387579.0,
2349.0,987.0,3918.0,1833.0,387583.0,
2348.0,987.0,3918.0,1832.0,387587.0,
2349.0,987.0,3917.0,1833.0,387591.0,
2350.0,986.0,3917.0,1830.0,387595.0,
2350.0,988.0,3918.0,1832.0,387599.0,
2348.0,987.0,3916.0,1835.0,387603.0,
2348.0,987.0,3917.0,1836.0,387607.0,
2350.0,987.0,3918.0,1836.0,387611.0,
2350.0,988.0,3692.0,1836.0,387615.0,
2348.0,986.0,3396.0,1833.0,387619.0,
2350.0,987.0,3106.0,1835.0,387623.0,
2349.0,988.0,2820.0,1835.0,387627.0,
2350.0,988.0,2538.0,1836.0,387631.0,
2350.0,988.0,2270.0,1839.0,387635.0,
2351.0,986.0,2007.0,1839.0,387639.0,
2351.0,986.0,1759.0,1841.0,387643.0,
2350.0,987.0,1524.0,1841.0,387647.0,
2351.0,985.0,1305.0,1844.0,387651.0,
2350.0,986.0,1099.0,1841.0,387655.0,
2350.0,987.0,910.0,1844.0,387659.0,
2351.0,986.0,734.0,1846.0,387663.0,
2351.0,984.0,573.0,1851.0,387667.0,
2350.0,986.0,423.0,1857.0,387671.0,
2351.0,985.0,290.0,1858.0,387675.0,
2352.0,987.0,170.0,1862.0,387679.0,
2351.0,986.0,62.0,1866.0,387683.0,
2350.0,986.0,0.0,1870.0,387687.0,
2351.0,986.0,0.0,1873.0,387691.0,
2351.0,984.0,0.0,1875.0,387695.0,
2351.0,985.0,0.0,1877.0,387699.0,
2351.0,986.0,0.0,1881.0,387703.0,
2351.0,985.0,0.0,1881.0,387707.0,
2351.0,986.0,0.0,1888.0,387711.0,
2351.0,985.0,0.0,1887.0,387715.0,
2350.0,984.0,0.0,1887.0,387719.0,
2351.0,985.0,0.0,1885.0,387723.0,
2350.0,986.0,0.0,1888.0,387727.0,
2350.0,986.0,0.0,1885.0,387731.0,
2350.0,985.0,0.0,1884.0,387735.0,
2350.0,987.0,0.0,1885.0,387739.0,
2350.0,985.0,0.0,1884.0,387743.0,
2351.0,985.0,0.0,1884.0,387747.0,
2351.0,984.0,0.0,1881.0,387751.0,
2350.0,985.0,0.0,1883.0,387755.0,
2349.0,985.0,0.0,1886.0,387759.0,
2351.0,985.0,0.0,1888.0,387763.0,
2350.0,985.0,0.0,1889.0,387767.0,
2350.0,985.0,0.0,1890.0,387771.0,
2349.0,984.0,0.0,1897.0,387775.0,
2349.0,984.0,0.0,1896.0,387779.0,
2349.0,985.0,0.0,1903.0,387783.0,
2349.0,985.0,0.0,1904.0,387787.0,
2349.0,985.0,0.0,1906.0,387791.0,
2348.0,984.0,0.0,1911.0,387795.0,
2349.0,984.0,0.0,1912.0,387799.0,
2348.0,985.0,0.0,1913.0,387803.0,
2348.0,983.0,0.0,1914.0,387807.0,
2348.0,983.0,0.0,1914.0,387811.0,
2348.0,985.0,0.0,1914.0,387815.0,
2348.0,984.0,13.0,1915.0,387819.0,
2348.0,984.0,66.0,1920.0,387823.0,
2348.0,985.0,106.0,1918.0,387827.0,
2347.0,984.0,146.0,1918.0,387831.0,
2348.0,984.0,187.0,1916.0,387835.0,
2346.0,984.0,224.0,1922.0,387839.0,
2348.0,982.0,259.0,1919.0,387843.0,
2346.0,983.0,296.0,1919.0,387847.0,
2347.0,984.0,333.0,1918.0,387851.0,
2347.0,983.0,363.0,1918.0,387855.0,
2347.0,983.0,395.0,1918.0,387859.0,
2347.0,983.0,425.0,1919.0,387863.0,
2347.0,984.0,454.0,1920.0,387867.0,
2346.0,984.0,477.0,1922.0,387871.0,
2346.0,983.0,499.0,1920.0,387875.0,
2345.0,982.0,518.0,1919.0,387879.0,
2346.0,981.0,536.0,1920.0,387883.0,
2346.0,983.0,555.0,1919.0,387887.0,
2346.0,983.0,569.0,1917.0,387891.0,
2346.0,983.0,580.0,1922.0,387895.0,
2346.0,982.0,592.0,1923.0,387899.0,
2346.0,982.0,600.0,1923.0,387903.0,
2346.0,983.0,608.0,1925.0,387907.0,
2344.0,982.0,610.0,1928.0,387911.0,
2346.0,982.0,614.0,1928.0,387915.0,
2345.0,982.0,615.0,1930.0,387919.0,
2343.0,981.0,617.0,1934.0,387923.0,
2345.0,983.0,618.0,1934.0,387927.0,
2345.0,982.0,617.0,1932.0,387931.0,
2345.0,983.0,617.0,1935.0,387935.0,
2344.0,983.0,616.0,1935.0,387939.0,
2345.0,984.0,614.0,1936.0,387943.0,
2345.0,984.0,614.0,1941.0,387947.0,
2344.0,982.0,609.0,1942.0,387951.0,
2345.0,983.0,607.0,1945.0,387955.0,
2343.0,981.0,601.0,1951.0,387959.0,
2345.0,983.0,598.0,1957.0,387963.0,
2344.0,983.0,592.0,1965.0,387967.0,
2344.0,983.0,582.0,1973.0,387971.0,
2344.0,983.0,577.0,1982.0,387975.0,
2344.0,983.0,565.0,1999.0,387979.0,
2344.0,983.0,555.0,2017.0,387983.0,
2345.0,983.0,543.0,2037.0,387987.0,
2344.0,983.0,533.0,2059.0,387991.0,
2343.0,983.0,523.0,2088.0,387995.0,
2344.0,982.0,514.0,2116.0,387999.0,
2343.0,984.0,508.0,2149.0,388003.0,
2344.0,982.0,504.0,2183.0,388007.0,
2344.0,983.0,506.0,2218.0,388011.0,
2344.0,981.0,508.0,2253.0,388015.0,
2343.0,981.0,519.0,2291.0,388019.0,
2343.0,983.0,543.0,2326.0,388023.0,
2344.0,983.0,577.0,2360.0,388027.0,
2343.0,982.0,620.0,2395.0,388031.0,
2343.0,983.0,680.0,2428.0,388035.0,
2342.0,981.0,757.0,2459.0,388039.0,
2344.0,983.0,858.0,2490.0,388043.0,
2343.0,982.0,975.0,2510.0,388047.0,
2344.0,983.0,1116.0,2536.0,388051.0,
2344.0,984.0,1284.0,2557.0,388055.0,
2344.0,984.0,1477.0,2578.0,388059.0,
2344.0,985.0,1692.0,2593.0,388063.0,
2344.0,984.0,1933.0,2607.0,388067.0,
2344.0,985.0,2195.0,2618.0,388071.0,
2343.0,984.0,2480.0,2624.0,388075.0,
2342.0,982.0,2778.0,2629.0,388079.0,
2344.0,983.0,3099.0,2631.0,388083.0,
2344.0,983.0,3433.0,2631.0,388087.0,
2343.0,983.0,3774.0,2627.0,388091.0,
2343.0,983.0,3918.0,2625.0,388095.0,
2343.0,983.0,3917.0,2616.0,388099.0,
2344.0,984.0,3919.0,2611.0,388103.0,
2343.0,983.0,3916.0,2604.0,388107.0,
2345.0,984.0,3917.0,2595.0,388111.0,
2343.0,985.0,3917.0,2587.0,388115.0,
2344.0,985.0,3920.0,2576.0,388119.0,
2344.0,986.0,3920.0,2566.0,388123.0,
2344.0,986.0,3919.0,2551.0,388127.0,
2344.0,987.0,3920.0,2538.0,388131.0,
2345.0,984.0,3917.0,2524.0,388135.0,
2344.0,987.0,3919.0,2511.0,388139.0,
2343.0,987.0,3920.0,2496.0,388143.0,
2344.0,987.0,3918.0,2478.0,388147.0,
2344.0,987.0,3919.0,2463.0,388151.0,
2344.0,988.0,3920.0,2450.0,388155.0,
2344.0,987.0,3919.0,2431.0,388159.0,
2344.0,987.0,3920.0,2417.0,388163.0,
2343.0,986.0,3918.0,2401.0,388167.0,
2344.0,988.0,3920.0,2384.0,388171.0,
2344.0,988.0,3920.0,2360.0,388175.0,
2343.0,988.0,3918.0,2343.0,388179.0,
2342.0,989.0,3920.0,2323.0,388183.0,
2344.0,988.0,3920.0,2304.0,388187.0,
2344.0,987.0,3918.0,2281.0,388191.0,
2340.0,988.0,3919.0,2261.0,388195.0,
2344.0,987.0,3919.0,2238.0,388199.0,
2345.0,989.0,3921.0,2220.0,388203.0,
2344.0,989.0,3919.0,2197.0,388207.0,
2348.0,989.0,3919.0,2172.0,388211.0,
2344.0,988.0,3919.0,2152.0,388215.0,
2344.0,988.0,3921.0,2132.0,388219.0,
2344.0,988.0,3919.0,2113.0,388223.0,
2344.0,988.0,3919.0,2090.0,388227.0,
2343.0,989.0,3921.0,2075.0,388231.0,
2344.0,988.0,3919.0,2059.0,388235.0,
2345.0,988.0,3919.0,2044.0,388239.0,
2344.0,990.0,3921.0,2032.0,388243.0,
2345.0,989.0,3920.0,2017.0,388247.0,
2346.0,989.0,3920.0,2008.0,388251.0,
2342.0,989.0,3921.0,1998.0,388255.0,
2346.0,988.0,3920.0,1992.0,388259.0,
2345.0,990.0,3920.0,1984.0,388263.0,
2344.0,988.0,3919.0,1977.0,388267.0,
2345.0,990.0,3922.0,1972.0,388271.0,
2343.0,989.0,3918.0,1964.0,388275.0,
2345.0,990.0,3921.0,1963.0,388279.0,
2343.0,989.0,3919.0,1958.0,388283.0,
2344.0,988.0,3918.0,1957.0,388287.0,
2345.0,990.0,3921.0,1954.0,388291.0,
2344.0,987.0,3918.0,1953.0,388295.0,
2345.0,990.0,3920.0,1949.0,388299.0,
2344.0,990.0,3919.0,1953.0,388303.0,
2346.0,989.0,3921.0,1950.0,388307.0,
2345.0,989.0,3921.0,1949.0,388311.0,
2348.0,989.0,3921.0,1948.0,388315.0,
2343.0,988.0,3920.0,1947.0,388319.0,
2345.0,989.0,3920.0,1949.0,388323.0,
2346.0,989.0,3920.0,1950.0,388327.0,
2345.0,989.0,3920.0,1948.0,388331.0,
2345.0,989.0,3918.0,1949.0,388335.0,
2341.0,989.0,3920.0,1950.0,388339.0,
2344.0,989.0,3919.0,1953.0,388343.0,
2345.0,989.0,3921.0,1951.0,388347.0,
2343.0,987.0,3916.0,1953.0,388351.0,
2344.0,989.0,3920.0,1950.0,388355.0,
2344.0,989.0,3918.0,1950.0,388359.0,
2345.0,990.0,3920.0,1950.0,388363.0,
2344.0,989.0,3918.0,1947.0,388367.0,
2344.0,989.0,3919.0,1944.0,388371.0,
2343.0,990.0,3919.0,1942.0,388375.0,
2344.0,990.0,3919.0,1939.0,388379.0,
2344.0,991.0,3919.0,1934.0,388383.0,
2344.0,990.0,3919.0,1936.0,388387.0,
2344.0,991.0,3917.0,1930.0,388391.0,
2344.0,992.0,3920.0,1929.0,388395.0,
2343.0,991.0,3918.0,1925.0,388399.0,
2345.0,992.0,3919.0,1915.0,388403.0,
2343.0,991.0,3919.0,1916.0,388407.0,
2345.0,992.0,3921.0,1911.0,388411.0,
2343.0,990.0,3918.0,1909.0,388415.0,
2345.0,990.0,3920.0,1905.0,388419.0,
2344.0,990.0,3919.0,1905.0,388423.0,
2345.0,991.0,3920.0,1900.0,388427.0,
2344.0,990.0,3918.0,1899.0,388431.0,
2345.0,991.0,3919.0,1898.0,388435.0,
2344.0,989.0,3916.0,1895.0,388439.0,
2345.0,989.0,3920.0,1897.0,388443.0,
2344.0,989.0,3917.0,1895.0,388447.0,
2345.0,989.0,3918.0,1887.0,388451.0,
2345.0,989.0,3918.0,1890.0,388455.0,
2344.0,988.0,3918.0,1892.0,388459.0,
2345.0,988.0,3764.0,1892.0,388463.0,
2345.0,989.0,3483.0,1894.0,388467.0,
2344.0,989.0,3195.0,1897.0,388471.0,
2345.0,989.0,2918.0,1898.0,388475.0,
2344.0,989.0,2640.0,1900.0,388479.0,
2345.0,988.0,2373.0,1898.0,388483.0,
2346.0,989.0,2115.0,1900.0,388487.0,
2344.0,987.0,1868.0,1898.0,388491.0,
2345.0,989.0,1636.0,1900.0,388495.0,
2345.0,988.0,1414.0,1900.0,388499.0,
2344.0,988.0,1209.0,1898.0,388503.0,
2346.0,987.0,1016.0,1896.0,388507.0,
2345.0,989.0,837.0,1898.0,388511.0,
2346.0,989.0,670.0,1899.0,388515.0,
2343.0,989.0,512.0,1901.0,388519.0,
2346.0,990.0,376.0,1899.0,388523.0,
2346.0,989.0,248.0,1899.0,388527.0,
2344.0,987.0,133.0,1904.0,388531.0,
2346.0,990.0,37.0,1903.0,388535.0,
2346.0,988.0,0.0,1909.0,388539.0,
2346.0,989.0,0.0,1914.0,388543.0,
2346.0,988.0,0.0,1919.0,388547.0,
2346.0,988.0,0.0,1923.0,388551.0,
2346.0,989.0,0.0,1928.0,388555.0,
2347.0,988.0,0.0,1933.0,388559.0,
2346.0,988.0,0.0,1938.0,388563.0,
2346.0,987.0,0.0,1943.0,388567.0,
2346.0,986.0,0.0,1945.0,388571.0,
2345.0,984.0,0.0,1947.0,388575.0,
2346.0,984.0,0.0,1947.0,388579.0,
2347.0,986.0,0.0,1949.0,388583.0,
2345.0,983.0,0.0,1947.0,388587.0,
2347.0,985.0,0.0,1949.0,388591.0,
2346.0,985.0,0.0,1950.0,388595.0,
2346.0,985.0,0.0,1952.0,388599.0,
2347.0,984.0,0.0,1952.0,388603.0,
2346.0,985.0,0.0,1954.0,388607.0,
2346.0,986.0,0.0,1957.0,388611.0,
2347.0,985.0,0.0,1958.0,388615.0,
2346.0,985.0,0.0,1958.0,388619.0,
2347.0,985.0,0.0,1956.0,388623.0,
2346.0,984.0,0.0,1956.0,388627.0,
2346.0,983.0,0.0,1957.0,388631.0,
2346.0,984.0,0.0,1958.0,388635.0,
2347.0,983.0,0.0,1959.0,388639.0,
2346.0,985.0,0.0,1961.0,388643.0,
2346.0,982.0,0.0,1958.0,388647.0,
2347.0,982.0,0.0,1960.0,388651.0,
2347.0,984.0,0.0,1962.0,388655.0,
2346.0,982.0,0.0,1960.0,388659.0,
2346.0,984.0,0.0,1955.0,388663.0,
2347.0,983.0,0.0,1952.0,388667.0,
2347.0,981.0,44.0,1950.0,388671.0,
2347.0,983.0,82.0,1948.0,388675.0,
2347.0,983.0,118.0,1944.0,388679.0,
2347.0,981.0,147.0,1944.0,388683.0,
2347.0,982.0,182.0,1941.0,388687.0,
2347.0,981.0,212.0,1936.0,388691.0,
2347.0,982.0,241.0,1938.0,388695.0,
2348.0,983.0,273.0,1935.0,388699.0,
2347.0,982.0,299.0,1935.0,388703.0,
2347.0,981.0,324.0,1930.0,388707.0,
2346.0,981.0,348.0,1931.0,388711.0,
2348.0,980.0,369.0,1923.0,388715.0,
2347.0,980.0,392.0,1925.0,388719.0,
2348.0,979.0,408.0,1920.0,388723.0,
2348.0,981.0,429.0,1924.0,388727.0,
2347.0,980.0,441.0,1923.0,388731.0,
2347.0,981.0,452.0,1918.0,388735.0,
2348.0,981.0,464.0,1922.0,388739.0,
2348.0,981.0,473.0,1917.0,388743.0,
2349.0,981.0,480.0,1920.0,388747.0,
2349.0,980.0,487.0,1921.0,388751.0,
2348.0,981.0,493.0,1922.0,388755.0,
2348.0,982.0,494.0,1922.0,388759.0,
2349.0,981.0,496.0,1922.0,388763.0,
2348.0,979.0,494.0,1922.0,388767.0,
2349.0,980.0,495.0,1923.0,388771.0,
2349.0,981.0,492.0,1920.0,388775.0,
2348.0,981.0,491.0,1920.0,388779.0,
2349.0,981.0,488.0,1922.0,388783.0,
2348.0,978.0,481.0,1924.0,388787.0,
2349.0,980.0,479.0,1924.0,388791.0,
2349.0,981.0,471.0,1922.0,388795.0,
2348.0,981.0,465.0,1923.0,388799.0,
2349.0,980.0,458.0,1922.0,388803.0,
2349.0,980.0,455.0,1923.0,388807.0,
2350.0,980.0,449.0,1923.0,388811.0,
2349.0,980.0,442.0,1921.0,388815.0,
2349.0,979.0,437.0,1919.0,388819.0,
2350.0,980.0,430.0,1919.0,388823.0,
2350.0,979.0,426.0,1914.0,388827.0,
2349.0,980.0,420.0,1909.0,388831.0,
2350.0,979.0,412.0,1907.0,388835.0,
2349.0,979.0,407.0,1904.0,388839.0,
2350.0,979.0,399.0,1900.0,388843.0,
2349.0,976.0,391.0,1898.0,388847.0,
2349.0,980.0,385.0,1898.0,388851.0,
2349.0,978.0,380.0,1895.0,388855.0,
2349.0,977.0,375.0,1898.0,388859.0,
2349.0,978.0,370.0,1898.0,388863.0,
2348.0,977.0,367.0,1901.0,388867.0,
2350.0,977.0,361.0,1901.0,388871.0,
2350.0,978.0,360.0,1904.0,388875.0,
2350.0,978.0,356.0,1910.0,388879.0,
2349.0,977.0,353.0,1912.0,388883.0,
2350.0,977.0,350.0,1921.0,388887.0,
2350.0,977.0,348.0,1928.0,388891.0,
2350.0,978.0,345.0,1942.0,388895.0,
2351.0,977.0,342.0,1953.0,388899.0,
2351.0,978.0,341.0,1971.0,388903.0,
2350.0,977.0,340.0,1989.0,388907.0,
2351.0,977.0,338.0,2010.0,388911.0,
2351.0,977.0,336.0,2036.0,388915.0,
2351.0,977.0,336.0,2063.0,388919.0,
2351.0,979.0,334.0,2096.0,388923.0,
2351.0,979.0,339.0,2128.0,388927.0,
2351.0,980.0,339.0,2165.0,388931.0,
2349.0,978.0,348.0,2200.0,388935.0,
2351.0,980.0,360.0,2235.0,388939.0,
2351.0,978.0,374.0,2271.0,388943.0,
2352.0,979.0,398.0,2303.0,388947.0,
2351.0,979.0,433.0,2337.0,388951.0,
2351.0,980.0,479.0,2368.0,388955.0,
2352.0,980.0,536.0,2398.0,388959.0,
2352.0,978.0,605.0,2424.0,388963.0,
2350.0,978.0,695.0,2452.0,388967.0,
2352.0,978.0,802.0,2474.0,388971.0,
2351.0,978.0,930.0,2494.0,388975.0,
2351.0,978.0,1076.0,2513.0,388979.0,
2351.0,978.0,1247.0,2531.0,388983.0,
2351.0,980.0,1438.0,2544.0,388987.0,
2352.0,979.0,1649.0,2560.0,388991.0,
2352.0,980.0,1881.0,2569.0,388995.0,
2352.0,979.0,2136.0,2577.0,388999.0,
2352.0,978.0,2408.0,2584.0,389003.0,
2352.0,979.0,2694.0,2587.0,389007.0,
2353.0,980.0,2993.0,2593.0,389011.0,
2352.0,978.0,3302.0,2594.0,389015.0,
2353.0,978.0,3621.0,2589.0,389019.0,
2351.0,977.0,3911.0,2589.0,389023.0,
2351.0,978.0,3917.0,2588.0,389027.0,
2352.0,978.0,3917.0,2584.0,389031.0,
2351.0,974.0,3916.0,2577.0,389035.0,
2350.0,973.0,3917.0,2572.0,389039.0,
2351.0,976.0,3917.0,2566.0,389043.0,
2352.0,977.0,3918.0,2560.0,389047.0,
2352.0,978.0,3919.0,2547.0,389051.0,
2351.0,981.0,3919.0,2542.0,389055.0,
2352.0,978.0,3919.0,2535.0,389059.0,
2352.0,978.0,3920.0,2527.0,389063.0,
2352.0,979.0,3920.0,2515.0,389067.0,
2352.0,977.0,3919.0,2507.0,389071.0,
2351.0,978.0,3918.0,2497.0,389075.0,
2349.0,975.0,3916.0,2487.0,389079.0,
2352.0,978.0,3919.0,2476.0,389083.0,
2352.0,978.0,3919.0,2465.0,389087.0,
2351.0,976.0,3919.0,2456.0,389091.0,
2352.0,976.0,3918.0,2440.0,389095.0,
2352.0,978.0,3919.0,2428.0,389099.0,
2352.0,977.0,3920.0,2415.0,389103.0,
2351.0,976.0,3920.0,2402.0,389107.0,
2352.0,981.0,3919.0,2386.0,389111.0,
2351.0,978.0,3920.0,2372.0,389115.0,
2352.0,977.0,3918.0,2354.0,389119.0,
2351.0,977.0,3918.0,2337.0,389123.0,
2351.0,973.0,3919.0,2324.0,389127.0,
2351.0,975.0,3921.0,2309.0,389131.0,
2351.0,971.0,3919.0,2296.0,389135.0,
2351.0,975.0,3919.0,2281.0,389139.0,
2352.0,975.0,3920.0,2268.0,389143.0,
2352.0,974.0,3921.0,2255.0,389147.0,
2351.0,975.0,3919.0,2244.0,389151.0,
2350.0,974.0,3919.0,2230.0,389155.0,
2351.0,975.0,3919.0,2222.0,389159.0,
2351.0,974.0,3919.0,2213.0,389163.0,
2351.0,974.0,3919.0,2209.0,389167.0,
2351.0,975.0,3919.0,2205.0,389171.0,
2351.0,975.0,3919.0,2204.0,389175.0,
2350.0,974.0,3918.0,2204.0,389179.0,
2350.0,975.0,3918.0,2203.0,389183.0,
2351.0,973.0,3918.0,2203.0,389187.0,
2351.0,974.0,3920.0,2206.0,389191.0,
2352.0,975.0,3921.0,2211.0,389195.0,
2351.0,975.0,3921.0,2217.0,389199.0,
2352.0,974.0,3919.0,2221.0,389203.0,
2351.0,974.0,3918.0,2224.0,389207.0,
2351.0,975.0,3920.0,2232.0,389211.0,
2351.0,976.0,3920.0,2236.0,389215.0,
2351.0,976.0,3919.0,2245.0,389219.0,
2352.0,975.0,3919.0,2252.0,389223.0,
2351.0,976.0,3920.0,2259.0,389227.0,
2351.0,975.0,3919.0,2261.0,389231.0,
2351.0,975.0,3919.0,2271.0,389235.0,
2351.0,976.0,3920.0,2276.0,389239.0,
2351.0,975.0,3920.0,2282.0,389243.0,
2351.0,976.0,3919.0,2282.0,389247.0,
2350.0,974.0,3918.0,2286.0,389251.0,
2350.0,975.0,3918.0,2289.0,389255.0,
2349.0,975.0,3918.0,2293.0,389259.0,
2349.0,974.0,3918.0,2297.0,389263.0,
2350.0,975.0,3919.0,2295.0,389267.0,
2349.0,976.0,3918.0,2297.0,389271.0,
2350.0,975.0,3918.0,2294.0,389275.0,
2350.0,975.0,3919.0,2295.0,389279.0,
2350.0,976.0,3920.0,2293.0,389283.0,
2351.0,975.0,3916.0,2290.0,389287.0,
2351.0,976.0,3920.0,2287.0,389291.0,
2350.0,975.0,3918.0,2283.0,389295.0,
2351.0,975.0,3918.0,2277.0,389299.0,
2351.0,975.0,3919.0,2277.0,389303.0,
2352.0,975.0,3918.0,2267.0,389307.0,
2351.0,976.0,3919.0,2259.0,389311.0,
2351.0,975.0,3919.0,2249.0,389315.0,
2351.0,975.0,3919.0,2242.0,389319.0,
2350.0,974.0,3919.0,2231.0,389323.0,
2351.0,976.0,3919.0,2220.0,389327.0,
2351.0,975.0,3919.0,2208.0,389331.0,
2350.0,974.0,3918.0,2197.0,389335.0,
2352.0,973.0,3917.0,2182.0,389339.0,
2351.0,974.0,3918.0,2168.0,389343.0,
2352.0,975.0,3918.0,2152.0,389347.0,
2351.0,975.0,3695.0,2138.0,389351.0,
2352.0,975.0,3452.0,2120.0,389355.0,
2352.0,975.0,3210.0,2101.0,389359.0,
2352.0,975.0,2971.0,2081.0,389363.0,
2352.0,974.0,2738.0,2061.0,389367.0,
2352.0,976.0,2512.0,2043.0,389371.0,
2352.0,974.0,2296.0,2022.0,389375.0,
2352.0,975.0,2092.0,2005.0,389379.0,
2352.0,974.0,1894.0,1986.0,389383.0,
2352.0,975.0,1710.0,1968.0,389387.0,
2352.0,973.0,1532.0,1952.0,389391.0,
2353.0,975.0,1365.0,1937.0,389395.0,
2354.0,974.0,1211.0,1919.0,389399.0,
2353.0,974.0,1068.0,1910.0,389403.0,
2353.0,974.0,933.0,1899.0,389407.0,
2354.0,973.0,814.0,1883.0,389411.0,
2353.0,972.0,702.0,1873.0,389415.0,
2354.0,974.0,607.0,1861.0,389419.0,
2354.0,973.0,518.0,1852.0,389423.0,
2354.0,973.0,434.0,1848.0,389427.0,
2355.0,974.0,367.0,1840.0,389431.0,
2354.0,974.0,304.0,1836.0,389435.0,
2356.0,973.0,245.0,1830.0,389439.0,
2355.0,974.0,199.0,1830.0,389443.0,
2355.0,974.0,160.0,1827.0,389447.0,
2355.0,976.0,130.0,1830.0,389451.0,
2356.0,973.0,100.0,1826.0,389455.0,
2356.0,974.0,81.0,1829.0,389459.0,
2356.0,974.0,67.0,1831.0,389463.0,
2356.0,975.0,57.0,1832.0,389467.0,
2356.0,974.0,55.0,1837.0,389471.0,
2356.0,974.0,54.0,1842.0,389475.0,
2357.0,974.0,58.0,1847.0,389479.0,
2357.0,974.0,70.0,1849.0,389483.0,
2357.0,974.0,83.0,1857.0,389487.0,
2357.0,973.0,95.0,1860.0,389491.0,
2357.0,974.0,113.0,1870.0,389495.0,
2358.0,974.0,134.0,1875.0,389499.0,
2358.0,973.0,151.0,1880.0,389503.0,
2358.0,975.0,170.0,1886.0,389507.0,
2358.0,973.0,187.0,1893.0,389511.0,
2359.0,973.0,209.0,1897.0,389515.0,
2357.0,972.0,228.0,1905.0,389519.0,
2359.0,973.0,250.0,1908.0,389523.0,
2359.0,973.0,274.0,1910.0,389527.0,
2359.0,973.0,296.0,1911.0,389531.0,
2359.0,973.0,316.0,1913.0,389535.0,
2359.0,974.0,338.0,1915.0,389539.0,
2359.0,974.0,359.0,1921.0,389543.0,
2359.0,974.0,377.0,1919.0,389547.0,
2359.0,973.0,399.0,1921.0,389551.0,
2359.0,972.0,413.0,1920.0,389555.0,
2360.0,974.0,431.0,1920.0,389559.0,
2360.0,971.0,452.0,1921.0,389563.0,
2359.0,972.0,469.0,1924.0,389567.0,
2359.0,971.0,485.0,1925.0,389571.0,
2360.0,973.0,504.0,1926.0,389575.0,
2360.0,973.0,520.0,1922.0,389579.0,
2358.0,972.0,535.0,1917.0,389583.0,
2361.0,973.0,550.0,1916.0,389587.0,
2360.0,973.0,564.0,1913.0,389591.0,
2360.0,972.0,577.0,1910.0,389595.0,
2358.0,971.0,590.0,1909.0,389599.0,
2360.0,974.0,605.0,1907.0,389603.0,
2359.0,972.0,617.0,1905.0,389607.0,
2360.0,973.0,632.0,1904.0,389611.0,
2360.0,972.0,643.0,1900.0,389615.0,
2360.0,973.0,657.0,1899.0,389619.0,
2360.0,972.0,668.0,1897.0,389623.0,
2360.0,971.0,680.0,1893.0,389627.0,
2360.0,973.0,690.0,1890.0,389631.0,
2361.0,971.0,697.0,1888.0,389635.0,
2360.0,973.0,706.0,1888.0,389639.0,
2359.0,973.0,714.0,1884.0,389643.0,
2359.0,972.0,721.0,1884.0,389647.0,
2358.0,972.0,724.0,1886.0,389651.0,
2359.0,973.0,730.0,1883.0,389655.0,
2359.0,971.0,728.0,1880.0,389659.0,
2359.0,973.0,732.0,1881.0,389663.0,
2359.0,972.0,735.0,1880.0,389667.0,
2359.0,970.0,734.0,1883.0,389671.0,
2359.0,972.0,735.0,1880.0,389675.0,
2359.0,971.0,731.0,1876.0,389679.0,
2359.0,972.0,730.0,1879.0,389683.0,
2359.0,972.0,723.0,1876.0,389687.0,
2358.0,972.0,718.0,1879.0,389691.0,
2359.0,972.0,711.0,1880.0,389695.0,
2359.0,971.0,705.0,1879.0,389699.0,
2359.0,971.0,695.0,1886.0,389703.0,
2358.0,971.0,686.0,1889.0,389707.0,
2359.0,971.0,678.0,1898.0,389711.0,
2358.0,971.0,668.0,1909.0,389715.0,
2359.0,972.0,660.0,1923.0,389719.0,
2358.0,971.0,649.0,1940.0,389723.0,
2358.0,971.0,638.0,1957.0,389727.0,
2358.0,970.0,626.0,1975.0,389731.0,
2358.0,971.0,616.0,1998.0,389735.0,
2359.0,970.0,606.0,2026.0,389739.0,
2359.0,971.0,599.0,2052.0,389743.0,
2359.0,971.0,590.0,2077.0,389747.0,
2358.0,970.0,585.0,2107.0,389751.0,
2357.0,971.0,584.0,2138.0,389755.0,
2358.0,971.0,589.0,2164.0,389759.0,
2360.0,971.0,604.0,2190.0,389763.0,
2359.0,969.0,627.0,2216.0,389767.0,
2359.0,972.0,664.0,2241.0,389771.0,
2359.0,972.0,710.0,2264.0,389775.0,
2360.0,972.0,775.0,2283.0,389779.0,
2359.0,971.0,853.0,2299.0,389783.0,
2359.0,971.0,949.0,2315.0,389787.0,
2359.0,971.0,1070.0,2331.0,389791.0,
2359.0,972.0,1205.0,2343.0,389795.0,
2359.0,972.0,1361.0,2354.0,389799.0,
2359.0,968.0,1537.0,2363.0,389803.0,
2359.0,971.0,1737.0,2370.0,389807.0,
2358.0,970.0,1953.0,2374.0,389811.0,
2359.0,971.0,2186.0,2373.0,389815.0,
2359.0,971.0,2435.0,2384.0,389819.0,
2359.0,972.0,2699.0,2386.0,389823.0,
2359.0,972.0,2971.0,2386.0,389827.0,
2359.0,971.0,3249.0,2386.0,389831.0,
2360.0,973.0,3534.0,2390.0,389835.0,
2360.0,971.0,3816.0,2389.0,389839.0,
2359.0,972.0,3917.0,2384.0,389843.0,
2359.0,973.0,3918.0,2385.0,389847.0,
2360.0,970.0,3916.0,2382.0,389851.0,
2360.0,971.0,3918.0,2378.0,389855.0,
2359.0,972.0,3918.0,2375.0,389859.0,
2361.0,972.0,3919.0,2374.0,389863.0,
2360.0,973.0,3919.0,2366.0,389867.0,
2359.0,972.0,3918.0,2362.0,389871.0,
2360.0,971.0,3918.0,2356.0,389875.0,
2359.0,972.0,3918.0,2350.0,389879.0,
2359.0,972.0,3921.0,2339.0,389883.0,
2358.0,971.0,3917.0,2330.0,389887.0,
2358.0,971.0,3918.0,2318.0,389891.0,
2358.0,971.0,3918.0,2310.0,389895.0,
2359.0,971.0,3918.0,2297.0,389899.0,
2360.0,972.0,3919.0,2282.0,389903.0,
2359.0,971.0,3918.0,2266.0,389907.0,
2360.0,972.0,3918.0,2247.0,389911.0,
2359.0,971.0,3917.0,2232.0,389915.0,
2360.0,972.0,3918.0,2212.0,389919.0,
2360.0,971.0,3918.0,2192.0,389923.0,
2360.0,970.0,3919.0,2173.0,389927.0,
2360.0,969.0,3918.0,2151.0,389931.0,
2360.0,970.0,3918.0,2129.0,389935.0,
2361.0,970.0,3918.0,2110.0,389939.0,
2360.0,972.0,3920.0,2086.0,389943.0,
2361.0,971.0,3922.0,2070.0,389947.0,
2360.0,972.0,3920.0,2050.0,389951.0,
2360.0,971.0,3919.0,2034.0,389955.0,
2360.0,971.0,3919.0,2021.0,389959.0,
2360.0,971.0,3919.0,2007.0,389963.0,
2360.0,970.0,3919.0,1995.0,389967.0,
2360.0,971.0,3920.0,1988.0,389971.0,
2361.0,970.0,3918.0,1975.0,389975.0,
2361.0,971.0,3919.0,1967.0,389979.0,
2360.0,971.0,3914.0,1962.0,389983.0,
2361.0,971.0,3920.0,1957.0,389987.0,
2361.0,970.0,3920.0,1952.0,389991.0,
2360.0,971.0,3919.0,1948.0,389995.0,
2360.0,971.0,3919.0,1947.0,389999.0,
2359.0,971.0,3918.0,1944.0,390003.0,
2360.0,971.0,3917.0,1941.0,390007.0,
2360.0,969.0,3917.0,1941.0,390011.0,
2360.0,970.0,3918.0,1936.0,390015.0,
2360.0,970.0,3918.0,1937.0,390019.0,
2361.0,969.0,3918.0,1939.0,390023.0,
2360.0,970.0,3922.0,1940.0,390027.0,
2360.0,970.0,3918.0,1939.0,390031.0,
2360.0,970.0,3919.0,1936.0,390035.0,
2360.0,971.0,3920.0,1934.0,390039.0,
2360.0,970.0,3918.0,1937.0,390043.0,
2360.0,971.0,3918.0,1940.0,390047.0,
2359.0,970.0,3917.0,1938.0,390051.0,
2359.0,970.0,3917.0,1935.0,390055.0,
2359.0,971.0,3919.0,1936.0,390059.0,
2359.0,968.0,3917.0,1939.0,390063.0,
2360.0,970.0,3917.0,1935.0,390067.0,
2359.0,971.0,3918.0,1939.0,390071.0,
2359.0,971.0,3916.0,1932.0,390075.0,
2359.0,972.0,3920.0,1934.0,390079.0,
2360.0,971.0,3918.0,1932.0,390083.0,
2360.0,971.0,3918.0,1936.0,390087.0,
2360.0,972.0,3917.0,1933.0,390091.0,
2359.0,971.0,3917.0,1936.0,390095.0,
2359.0,973.0,3918.0,1937.0,390099.0,
2360.0,972.0,3919.0,1937.0,390103.0,
2360.0,970.0,3749.0,1934.0,390107.0,
2359.0,972.0,3523.0,1931.0,390111.0,
2359.0,972.0,3299.0,1931.0,390115.0,
2357.0,970.0,3076.0,1928.0,390119.0,
2359.0,970.0,2866.0,1925.0,390123.0,
2358.0,971.0,2662.0,1926.0,390127.0,
2359.0,970.0,2467.0,1920.0,390131.0,
2359.0,970.0,2279.0,1920.0,390135.0,
2359.0,970.0,2102.0,1919.0,390139.0,
2358.0,970.0,1936.0,1915.0,390143.0,
2359.0,970.0,1779.0,1911.0,390147.0,
2359.0,970.0,1633.0,1912.0,390151.0,
2359.0,969.0,1493.0,1910.0,390155.0,
2359.0,969.0,1370.0,1908.0,390159.0,
2358.0,970.0,1254.0,1905.0,390163.0,
2359.0,970.0,1148.0,1905.0,390167.0,
2358.0,970.0,1053.0,1905.0,390171.0,
2359.0,969.0,967.0,1903.0,390175.0,
2358.0,970.0,888.0,1904.0,390179.0,
2358.0,969.0,817.0,1903.0,390183.0,
2358.0,970.0,755.0,1905.0,390187.0,
2359.0,970.0,702.0,1904.0,390191.0,
2358.0,970.0,655.0,1904.0,390195.0,
2358.0,970.0,615.0,1906.0,390199.0,
2357.0,968.0,579.0,1903.0,390203.0,
2359.0,970.0,552.0,1902.0,390207.0,
2358.0,970.0,525.0,1905.0,390211.0,
2357.0,970.0,504.0,1903.0,390215.0,
2358.0,971.0,489.0,1905.0,390219.0,
2357.0,971.0,475.0,1905.0,390223.0,
2358.0,970.0,463.0,1901.0,390227.0,
2357.0,970.0,457.0,1902.0,390231.0,
2356.0,970.0,453.0,1902.0,390235.0,
2356.0,970.0,449.0,1899.0,390239.0,
2357.0,970.0,451.0,1900.0,390243.0,
2357.0,971.0,450.0,1895.0,390247.0,
2355.0,969.0,453.0,1892.0,390251.0,
2356.0,970.0,457.0,1891.0,390255.0,
2356.0,970.0,462.0,1889.0,390259.0,
