EDA,Resp,PPG Finger,PPG Ear,arduino_ts,event_code
1582.0,4036.0,1705.0,2041.0,10936653.0,
1580.0,4033.0,1682.0,2035.0,10936657.0,
1580.0,4036.0,1654.0,2032.0,10936660.0,
1580.0,4034.0,1631.0,2030.0,10936664.0,
1580.0,4035.0,1601.0,2033.0,10936668.0,
1581.0,4036.0,1574.0,2033.0,10936672.0,
1579.0,4033.0,1546.0,2033.0,10936676.0,
1578.0,4035.0,1514.0,2028.0,10936680.0,
1579.0,4034.0,1485.0,2028.0,10936684.0,
1579.0,4037.0,1453.0,2025.0,10936687.0,
1580.0,4036.0,1422.0,2024.0,10936691.0,
1579.0,4033.0,1393.0,2023.0,10936695.0,
1577.0,4033.0,1364.0,2022.0,10936700.0,
1578.0,4036.0,1333.0,2019.0,10936703.0,
1580.0,4034.0,1307.0,2015.0,10936707.0,
1580.0,4035.0,1277.0,2011.0,10936711.0,
1579.0,4035.0,1251.0,2010.0,10936715.0,
1578.0,4033.0,1224.0,2008.0,10936719.0,
1578.0,4035.0,1201.0,2008.0,10936723.0,
1578.0,4036.0,1178.0,2002.0,10936727.0,
1581.0,4034.0,1159.0,2002.0,10936731.0,
1578.0,4034.0,1142.0,2000.0,10936734.0,
1577.0,4036.0,1125.0,1998.0,10936738.0,
1577.0,4036.0,1108.0,1996.0,10936742.0,
1576.0,4033.0,1093.0,1992.0,10936746.0,
1576.0,4037.0,1082.0,1991.0,10936750.0,
1575.0,4035.0,1070.0,1989.0,10936754.0,
1572.0,4036.0,1059.0,1986.0,10936758.0,
1571.0,4034.0,1054.0,1983.0,10936763.0,
1573.0,4035.0,1046.0,1983.0,10936767.0,
1572.0,4034.0,1048.0,1978.0,10936770.0,
1571.0,4035.0,1047.0,1977.0,10936774.0,
1569.0,4034.0,1050.0,1974.0,10936778.0,
1567.0,4035.0,1054.0,1976.0,10936782.0,
1569.0,4032.0,1060.0,1973.0,10936786.0,
1570.0,4036.0,1070.0,1974.0,10936790.0,
1569.0,4034.0,1074.0,1969.0,10936794.0,
1567.0,4036.0,1082.0,1969.0,10936798.0,
1566.0,4034.0,1095.0,1963.0,10936801.0,
1567.0,4036.0,1107.0,1964.0,10936805.0,
1568.0,4035.0,1115.0,1961.0,10936809.0,
1568.0,4033.0,1127.0,1959.0,10936813.0,
1568.0,4035.0,1143.0,1959.0,10936817.0,
1567.0,4033.0,1157.0,1956.0,10936821.0,
1568.0,4032.0,1170.0,1955.0,10936825.0,
1570.0,4036.0,1181.0,1952.0,10936829.0,
1570.0,4033.0,1193.0,1948.0,10936833.0,
1569.0,4034.0,1205.0,1951.0,10936837.0,
1569.0,4034.0,1215.0,1948.0,10936841.0,
1570.0,4034.0,1225.0,1945.0,10936845.0,
1572.0,4034.0,1233.0,1946.0,10936848.0,
1572.0,4035.0,1243.0,1943.0,10936852.0,
1573.0,4036.0,1252.0,1944.0,10936856.0,
1572.0,4037.0,1257.0,1940.0,10936860.0,
1573.0,4036.0,1265.0,1940.0,10936864.0,
1575.0,4037.0,1268.0,1939.0,10936868.0,
1576.0,4034.0,1274.0,1942.0,10936872.0,
1577.0,4035.0,1280.0,1941.0,10936876.0,
1577.0,4036.0,1284.0,1944.0,10936880.0,
1580.0,4035.0,1289.0,1943.0,10936884.0,
1581.0,4035.0,1292.0,1949.0,10936888.0,
1582.0,4033.0,1293.0,1946.0,10936892.0,
1583.0,4037.0,1293.0,1954.0,10936896.0,
1584.0,4033.0,1292.0,1955.0,10936900.0,
1585.0,4037.0,1291.0,1960.0,10936904.0,
1589.0,4034.0,1292.0,1959.0,10936908.0,
1592.0,4035.0,1290.0,1965.0,10936911.0,
1593.0,4036.0,1286.0,1967.0,10936915.0,
1592.0,4035.0,1285.0,1969.0,10936919.0,
1594.0,4036.0,1284.0,1975.0,10936923.0,
1596.0,4034.0,1283.0,1979.0,10936927.0,
1597.0,4036.0,1282.0,1989.0,10936931.0,
1598.0,4035.0,1282.0,1991.0,10936935.0,
1596.0,4036.0,1282.0,2000.0,10936938.0,
1595.0,4036.0,1282.0,2005.0,10936942.0,
1595.0,4034.0,1284.0,2012.0,10936946.0,
1595.0,4038.0,1284.0,2019.0,10936950.0,
1594.0,4036.0,1292.0,2028.0,10936954.0,
1593.0,4034.0,1296.0,2034.0,10936959.0,
1592.0,4037.0,1307.0,2040.0,10936962.0,
1593.0,4034.0,1319.0,2048.0,10936966.0,
1593.0,4035.0,1336.0,2058.0,10936970.0,
1591.0,4034.0,1359.0,2069.0,10936974.0,
1590.0,4033.0,1388.0,2077.0,10936978.0,
1589.0,4036.0,1424.0,2088.0,10936982.0,
1591.0,4033.0,1467.0,2098.0,10936986.0,
1591.0,4035.0,1521.0,2107.0,10936990.0,
1590.0,4034.0,1584.0,2116.0,10936994.0,
1589.0,4035.0,1649.0,2125.0,10936997.0,
1589.0,4037.0,1727.0,2133.0,10937001.0,
1589.0,4036.0,1814.0,2137.0,10937005.0,
1590.0,4036.0,1914.0,2145.0,10937009.0,
1590.0,4036.0,2029.0,2147.0,10937013.0,
1589.0,4033.0,2156.0,2152.0,10937018.0,
1588.0,4033.0,2287.0,2158.0,10937022.0,
1589.0,4033.0,2415.0,2158.0,10937026.0,
1590.0,4033.0,2542.0,2159.0,10937030.0,
1589.0,4032.0,2673.0,2159.0,10937034.0,
1588.0,4034.0,2804.0,2156.0,10937037.0,
1587.0,4034.0,2930.0,2155.0,10937041.0,
1588.0,4035.0,3059.0,2155.0,10937045.0,
1588.0,4034.0,3182.0,2148.0,10937049.0,
1588.0,4034.0,3299.0,2144.0,10937053.0,
1587.0,4032.0,3413.0,2145.0,10937057.0,
1586.0,4032.0,3519.0,2138.0,10937061.0,
1586.0,4033.0,3611.0,2135.0,10937064.0,
1587.0,4035.0,3698.0,2131.0,10937068.0,
1589.0,4035.0,3775.0,2129.0,10937072.0,
1586.0,4036.0,3839.0,2124.0,10937076.0,
1585.0,4036.0,3889.0,2122.0,10937080.0,
1585.0,4037.0,3913.0,2120.0,10937084.0,
1587.0,4035.0,3915.0,2118.0,10937088.0,
1587.0,4033.0,3914.0,2112.0,10937091.0,
1586.0,4035.0,3916.0,2111.0,10937095.0,
1585.0,4034.0,3919.0,2106.0,10937099.0,
1584.0,4034.0,3916.0,2108.0,10937103.0,
1587.0,4036.0,3916.0,2105.0,10937107.0,
1586.0,4035.0,3915.0,2105.0,10937111.0,
1585.0,4034.0,3888.0,2106.0,10937115.0,
1584.0,4036.0,3837.0,2104.0,10937119.0,
1584.0,4036.0,3782.0,2104.0,10937123.0,
1586.0,4035.0,3723.0,2104.0,10937127.0,
1587.0,4036.0,3658.0,2103.0,10937131.0,
1585.0,4035.0,3586.0,2102.0,10937135.0,
1584.0,4037.0,3511.0,2101.0,10937139.0,
1584.0,4035.0,3435.0,2096.0,10937143.0,
1586.0,4036.0,3354.0,2096.0,10937146.0,
1585.0,4033.0,3273.0,2092.0,10937150.0,
1586.0,4037.0,3192.0,2092.0,10937154.0,
1584.0,4034.0,3104.0,2087.0,10937158.0,
1584.0,4032.0,3017.0,2086.0,10937162.0,
1585.0,4035.0,2927.0,2081.0,10937166.0,
1586.0,4034.0,2838.0,2077.0,10937170.0,
1585.0,4034.0,2746.0,2074.0,10937174.0,
1583.0,4033.0,2661.0,2070.0,10937178.0,
1584.0,4034.0,2576.0,2065.0,10937181.0,
1585.0,4034.0,2493.0,2065.0,10937185.0,
1585.0,4036.0,2408.0,2062.0,10937189.0,
1585.0,4035.0,2324.0,2058.0,10937193.0,
1583.0,4036.0,2244.0,2055.0,10937197.0,
1583.0,4035.0,2162.0,2052.0,10937201.0,
1585.0,4034.0,2084.0,2047.0,10937205.0,
1585.0,4037.0,2007.0,2047.0,10937209.0,
1585.0,4033.0,1942.0,2040.0,10937213.0,
1584.0,4036.0,1877.0,2039.0,10937217.0,
1583.0,4034.0,1818.0,2030.0,10937221.0,
1584.0,4033.0,1758.0,2031.0,10937224.0,
1585.0,4037.0,1709.0,2031.0,10937228.0,
1585.0,4034.0,1664.0,2029.0,10937232.0,
1584.0,4036.0,1623.0,2031.0,10937236.0,
1583.0,4036.0,1589.0,2028.0,10937240.0,
1583.0,4034.0,1559.0,2022.0,10937244.0,
1584.0,4035.0,1535.0,2021.0,10937248.0,
1584.0,4032.0,1514.0,2021.0,10937252.0,
1584.0,4035.0,1501.0,2019.0,10937256.0,
1583.0,4033.0,1490.0,2015.0,10937260.0,
1583.0,4035.0,1484.0,2019.0,10937264.0,
1584.0,4033.0,1483.0,2016.0,10937267.0,
1585.0,4034.0,1485.0,2015.0,10937271.0,
1585.0,4035.0,1493.0,2014.0,10937275.0,
1583.0,4036.0,1501.0,2018.0,10937279.0,
1583.0,4036.0,1511.0,2022.0,10937283.0,
1584.0,4033.0,1523.0,2019.0,10937287.0,
1585.0,4038.0,1539.0,2021.0,10937291.0,
1584.0,4033.0,1552.0,2021.0,10937295.0,
1583.0,4036.0,1573.0,2022.0,10937298.0,
1583.0,4034.0,1589.0,2023.0,10937302.0,
1584.0,4034.0,1607.0,2023.0,10937306.0,
1584.0,4035.0,1625.0,2028.0,10937310.0,
1584.0,4034.0,1644.0,2031.0,10937314.0,
1584.0,4035.0,1659.0,2033.0,10937318.0,
1584.0,4033.0,1681.0,2031.0,10937322.0,
1586.0,4034.0,1694.0,2033.0,10937326.0,
1585.0,4035.0,1710.0,2032.0,10937330.0,
1584.0,4034.0,1718.0,2035.0,10937334.0,
1583.0,4033.0,1730.0,2032.0,10937339.0,
1583.0,4038.0,1737.0,2037.0,10937343.0,
1584.0,4079.0,1744.0,2034.0,10937346.0,
1585.0,4034.0,1748.0,2031.0,10937350.0,
1585.0,4035.0,1751.0,2029.0,10937354.0,
1583.0,4036.0,1749.0,2028.0,10937358.0,
1583.0,4036.0,1751.0,2025.0,10937362.0,
1584.0,4032.0,1746.0,2027.0,10937366.0,
1584.0,4036.0,1738.0,2023.0,10937370.0,
1584.0,4033.0,1730.0,2020.0,10937374.0,
1582.0,4037.0,1717.0,2020.0,10937378.0,
1583.0,4035.0,1702.0,2018.0,10937382.0,
1584.0,4033.0,1686.0,2018.0,10937386.0,
1585.0,4037.0,1670.0,2015.0,10937390.0,
1584.0,4035.0,1649.0,2012.0,10937394.0,
1584.0,4036.0,1632.0,2013.0,10937398.0,
1583.0,4034.0,1614.0,2013.0,10937401.0,
1585.0,4033.0,1595.0,2014.0,10937405.0,
1586.0,4031.0,1571.0,2011.0,10937409.0,
1586.0,4036.0,1549.0,2008.0,10937413.0,
1583.0,4033.0,1527.0,2008.0,10937417.0,
1583.0,4037.0,1501.0,2007.0,10937421.0,
1583.0,4079.0,1482.0,2005.0,10937424.0,
1585.0,4036.0,1458.0,2006.0,10937428.0,
1584.0,4035.0,1438.0,2005.0,10937432.0,
1584.0,4036.0,1414.0,2005.0,10937436.0,
1583.0,4034.0,1391.0,2004.0,10937440.0,
1584.0,4032.0,1368.0,2005.0,10937444.0,
1584.0,4035.0,1347.0,2006.0,10937448.0,
1585.0,4036.0,1329.0,2004.0,10937452.0,
1584.0,4034.0,1310.0,2004.0,10937456.0,
1583.0,4034.0,1293.0,2004.0,10937460.0,
1584.0,4034.0,1278.0,2000.0,10937464.0,
1585.0,4036.0,1261.0,2001.0,10937468.0,
1585.0,4033.0,1247.0,2000.0,10937472.0,
1585.0,4036.0,1230.0,1998.0,10937475.0,
1583.0,4035.0,1215.0,1998.0,10937479.0,
1584.0,4035.0,1203.0,1995.0,10937483.0,
1585.0,4036.0,1190.0,1991.0,10937487.0,
1584.0,4034.0,1179.0,1988.0,10937491.0,
1585.0,4032.0,1168.0,1986.0,10937495.0,
1583.0,4034.0,1156.0,1980.0,10937499.0,
1584.0,4032.0,1143.0,1977.0,10937503.0,
1585.0,4034.0,1132.0,1979.0,10937507.0,
1585.0,4033.0,1120.0,1975.0,10937511.0,
1585.0,4036.0,1109.0,1977.0,10937516.0,
1584.0,4033.0,1102.0,1975.0,10937520.0,
1584.0,4034.0,1093.0,1974.0,10937524.0,
1586.0,4036.0,1086.0,1976.0,10937528.0,
1586.0,4034.0,1086.0,1977.0,10937532.0,
1584.0,4035.0,1084.0,1978.0,10937536.0,
1584.0,4034.0,1083.0,1979.0,10937540.0,
1584.0,4034.0,1082.0,1984.0,10937544.0,
1586.0,4033.0,1083.0,1986.0,10937548.0,
1586.0,4036.0,1084.0,1989.0,10937552.0,
1585.0,4033.0,1086.0,1989.0,10937555.0,
1584.0,4036.0,1093.0,1995.0,10937559.0,
1584.0,4037.0,1094.0,1998.0,10937563.0,
1585.0,4033.0,1102.0,2002.0,10937567.0,
1586.0,4035.0,1107.0,2000.0,10937571.0,
1585.0,4034.0,1116.0,2002.0,10937575.0,
1584.0,4036.0,1124.0,2003.0,10937579.0,
1584.0,4033.0,1128.0,2002.0,10937582.0,
1585.0,4032.0,1139.0,2002.0,10937586.0,
1586.0,4035.0,1150.0,2005.0,10937590.0,
1585.0,4039.0,1160.0,2005.0,10937594.0,
1584.0,4033.0,1173.0,1998.0,10937598.0,
1582.0,4036.0,1180.0,1997.0,10937602.0,
1585.0,4035.0,1192.0,1998.0,10937606.0,
1586.0,4035.0,1198.0,1998.0,10937610.0,
1584.0,4034.0,1207.0,1999.0,10937614.0,
1584.0,4035.0,1215.0,1994.0,10937617.0,
1584.0,4036.0,1224.0,1993.0,10937622.0,
1585.0,4036.0,1231.0,1993.0,10937625.0,
1586.0,4036.0,1239.0,1989.0,10937629.0,
1585.0,4034.0,1245.0,1988.0,10937633.0,
1585.0,4036.0,1251.0,1990.0,10937637.0,
1583.0,4034.0,1257.0,1984.0,10937641.0,
1585.0,4036.0,1263.0,1985.0,10937645.0,
1586.0,4033.0,1272.0,1983.0,10937649.0,
1586.0,4037.0,1279.0,1979.0,10937653.0,
1585.0,4034.0,1283.0,1976.0,10937657.0,
1583.0,4036.0,1289.0,1975.0,10937660.0,
1584.0,4035.0,1292.0,1975.0,10937664.0,
1586.0,4034.0,1293.0,1976.0,10937668.0,
1586.0,4035.0,1298.0,1979.0,10937672.0,
1585.0,4033.0,1303.0,1979.0,10937676.0,
1584.0,4035.0,1306.0,1982.0,10937680.0,
1585.0,4036.0,1313.0,1986.0,10937684.0,
1587.0,4033.0,1321.0,1992.0,10937688.0,
1586.0,4037.0,1325.0,1998.0,10937692.0,
1585.0,4033.0,1335.0,2005.0,10937696.0,
1585.0,4034.0,1345.0,2009.0,10937700.0,
1584.0,4036.0,1355.0,2022.0,10937704.0,
1586.0,4038.0,1373.0,2030.0,10937708.0,
1585.0,4033.0,1392.0,2036.0,10937712.0,
1585.0,4033.0,1419.0,2044.0,10937716.0,
1584.0,4034.0,1451.0,2052.0,10937720.0,
1584.0,4036.0,1493.0,2063.0,10937724.0,
1586.0,4033.0,1538.0,2069.0,10937728.0,
1586.0,4037.0,1596.0,2077.0,10937732.0,
1585.0,4034.0,1664.0,2081.0,10937736.0,
1584.0,4037.0,1741.0,2087.0,10937740.0,
1585.0,4037.0,1826.0,2092.0,10937744.0,
1587.0,4032.0,1920.0,2097.0,10937748.0,
1587.0,4036.0,2018.0,2102.0,10937752.0,
1586.0,4032.0,2124.0,2107.0,10937756.0,
1585.0,4033.0,2239.0,2107.0,10937760.0,
1585.0,4034.0,2358.0,2107.0,10937764.0,
1587.0,4034.0,2476.0,2105.0,10937767.0,
1586.0,4036.0,2603.0,2108.0,10937771.0,
1586.0,4034.0,2731.0,2106.0,10937775.0,
1585.0,4036.0,2858.0,2108.0,10937779.0,
1585.0,4037.0,2986.0,2110.0,10937783.0,
1586.0,4037.0,3107.0,2111.0,10937787.0,
1586.0,4036.0,3229.0,2112.0,10937791.0,
1586.0,4036.0,3346.0,2112.0,10937795.0,
1584.0,4035.0,3454.0,2116.0,10937799.0,
1585.0,4035.0,3557.0,2116.0,10937803.0,
1586.0,4036.0,3649.0,2120.0,10937806.0,
1587.0,4032.0,3733.0,2121.0,10937810.0,
1586.0,4033.0,3808.0,2124.0,10937814.0,
1584.0,4034.0,3872.0,2122.0,10937818.0,
1584.0,4033.0,3912.0,2123.0,10937822.0,
1585.0,4036.0,3915.0,2123.0,10937826.0,
1588.0,4036.0,3916.0,2122.0,10937830.0,
1586.0,4032.0,3916.0,2118.0,10937834.0,
1587.0,4034.0,3915.0,2115.0,10937838.0,
1585.0,4036.0,3915.0,2113.0,10937842.0,
1586.0,4035.0,3915.0,2113.0,10937846.0,
1587.0,4036.0,3915.0,2107.0,10937850.0,
1586.0,4035.0,3915.0,2105.0,10937854.0,
1585.0,4036.0,3915.0,2102.0,10937857.0,
1584.0,4034.0,3914.0,2098.0,10937861.0,
1586.0,4036.0,3863.0,2092.0,10937865.0,
1588.0,4036.0,3811.0,2090.0,10937869.0,
1587.0,4037.0,3756.0,2084.0,10937873.0,
1586.0,4035.0,3695.0,2079.0,10937877.0,
1585.0,4036.0,3633.0,2074.0,10937881.0,
1586.0,4039.0,3563.0,2069.0,10937885.0,
1587.0,4035.0,3493.0,2063.0,10937888.0,
1587.0,4035.0,3420.0,2058.0,10937892.0,
1587.0,4035.0,3346.0,2052.0,10937896.0,
1585.0,4036.0,3269.0,2050.0,10937900.0,
1586.0,4036.0,3188.0,2048.0,10937904.0,
1586.0,4034.0,3107.0,2043.0,10937908.0,
1587.0,4036.0,3024.0,2046.0,10937912.0,
1586.0,4033.0,2942.0,2040.0,10937916.0,
1586.0,4035.0,2856.0,2041.0,10937920.0,
1585.0,4034.0,2773.0,2038.0,10937923.0,
1587.0,4035.0,2692.0,2037.0,10937927.0,
1588.0,4033.0,2612.0,2028.0,10937931.0,
1586.0,4033.0,2530.0,2028.0,10937935.0,
1586.0,4035.0,2448.0,2026.0,10937939.0,
1585.0,4035.0,2370.0,2024.0,10937943.0,
1586.0,4037.0,2292.0,2025.0,10937946.0,
1588.0,4035.0,2217.0,2023.0,10937950.0,
1587.0,4033.0,2144.0,2022.0,10937954.0,
1586.0,4033.0,2073.0,2022.0,10937958.0,
1586.0,4036.0,2003.0,2023.0,10937962.0,
1587.0,4034.0,1940.0,2025.0,10937966.0,
1587.0,4036.0,1881.0,2028.0,10937970.0,
1587.0,4035.0,1822.0,2028.0,10937974.0,
1585.0,4035.0,1777.0,2030.0,10937977.0,
1586.0,4038.0,1731.0,2032.0,10937981.0,
1586.0,4036.0,1694.0,2034.0,10937985.0,
1588.0,4036.0,1661.0,2033.0,10937989.0,
1588.0,4035.0,1636.0,2035.0,10937993.0,
1586.0,4037.0,1616.0,2039.0,10937997.0,
1585.0,4035.0,1603.0,2037.0,10938001.0,
1586.0,4036.0,1591.0,2041.0,10938004.0,
1587.0,4034.0,1585.0,2041.0,10938008.0,
1588.0,4034.0,1587.0,2038.0,10938012.0,
1586.0,4033.0,1590.0,2041.0,10938016.0,
1585.0,4033.0,1597.0,2044.0,10938020.0,
1586.0,4034.0,1611.0,2043.0,10938024.0,
1587.0,4036.0,1625.0,2045.0,10938028.0,
1588.0,4035.0,1647.0,2048.0,10938032.0,
1587.0,4036.0,1666.0,2052.0,10938036.0,
1586.0,4035.0,1688.0,2053.0,10938039.0,
1585.0,4034.0,1714.0,2052.0,10938043.0,
1588.0,4035.0,1738.0,2058.0,10938047.0,
1589.0,4036.0,1768.0,2057.0,10938051.0,
1587.0,4034.0,1793.0,2058.0,10938055.0,
1585.0,4036.0,1816.0,2060.0,10938059.0,
1586.0,4034.0,1841.0,2058.0,10938063.0,
1587.0,4037.0,1864.0,2062.0,10938067.0,
1588.0,4034.0,1886.0,2056.0,10938070.0,
1587.0,4033.0,1904.0,2059.0,10938074.0,
1586.0,4034.0,1920.0,2058.0,10938078.0,
1586.0,4035.0,1934.0,2057.0,10938082.0,
1587.0,4034.0,1947.0,2055.0,10938086.0,
1588.0,4035.0,1959.0,2056.0,10938090.0,
1588.0,4033.0,1968.0,2057.0,10938094.0,
1586.0,4037.0,1971.0,2055.0,10938098.0,
1586.0,4034.0,1973.0,2052.0,10938101.0,
1586.0,4035.0,1973.0,2055.0,10938105.0,
1587.0,4037.0,1972.0,2052.0,10938109.0,
1588.0,4034.0,1970.0,2052.0,10938113.0,
1587.0,4036.0,1962.0,2052.0,10938117.0,
1586.0,4035.0,1954.0,2050.0,10938121.0,
1587.0,4035.0,1944.0,2047.0,10938124.0,
1588.0,4035.0,1931.0,2042.0,10938128.0,
1588.0,4035.0,1914.0,2044.0,10938132.0,
1588.0,4034.0,1897.0,2045.0,10938136.0,
1586.0,4037.0,1871.0,2039.0,10938141.0,
1587.0,4034.0,1850.0,2038.0,10938145.0,
1588.0,4040.0,1826.0,2039.0,10938149.0,
1587.0,4033.0,1803.0,2036.0,10938153.0,
1587.0,4036.0,1777.0,2038.0,10938157.0,
1587.0,4034.0,1751.0,2035.0,10938160.0,
1587.0,4033.0,1724.0,2034.0,10938164.0,
1589.0,4036.0,1695.0,2034.0,10938168.0,
1588.0,4034.0,1667.0,2032.0,10938172.0,
1588.0,4036.0,1637.0,2033.0,10938176.0,
1586.0,4036.0,1610.0,2025.0,10938180.0,
1586.0,4035.0,1579.0,2025.0,10938183.0,
1588.0,4035.0,1551.0,2020.0,10938187.0,
1588.0,4076.0,1520.0,2023.0,10938191.0,
1587.0,4035.0,1494.0,2019.0,10938195.0,
1586.0,4033.0,1462.0,2014.0,10938200.0,
1586.0,4037.0,1437.0,2015.0,10938204.0,
1588.0,4036.0,1406.0,2013.0,10938208.0,
1588.0,4035.0,1381.0,2008.0,10938212.0,
1587.0,4035.0,1359.0,2010.0,10938216.0,
1586.0,4035.0,1337.0,2005.0,10938220.0,
1587.0,4036.0,1315.0,2004.0,10938224.0,
1590.0,4036.0,1296.0,2004.0,10938228.0,
1588.0,4038.0,1278.0,2004.0,10938232.0,
1587.0,4034.0,1264.0,1999.0,10938236.0,
1586.0,4035.0,1248.0,1998.0,10938240.0,
1587.0,4033.0,1235.0,1998.0,10938244.0,
1589.0,4035.0,1223.0,1999.0,10938247.0,
1588.0,4037.0,1211.0,1998.0,10938251.0,
1587.0,4037.0,1204.0,1999.0,10938255.0,
1587.0,4036.0,1197.0,1997.0,10938259.0,
1587.0,4035.0,1191.0,1997.0,10938263.0,
1588.0,4035.0,1183.0,1995.0,10938267.0,
1590.0,4036.0,1179.0,1997.0,10938271.0,
1588.0,4034.0,1175.0,1995.0,10938275.0,
1587.0,4035.0,1169.0,1997.0,10938278.0,
1587.0,4035.0,1166.0,2000.0,10938282.0,
1587.0,4035.0,1164.0,2000.0,10938286.0,
1588.0,4037.0,1165.0,1999.0,10938290.0,
1588.0,4034.0,1169.0,1999.0,10938294.0,
1588.0,4035.0,1172.0,2001.0,10938298.0,
1587.0,4033.0,1178.0,2003.0,10938302.0,
1586.0,4036.0,1181.0,2006.0,10938306.0,
1589.0,4035.0,1188.0,2002.0,10938310.0,
1591.0,4036.0,1195.0,2003.0,10938314.0,
1587.0,4034.0,1203.0,2006.0,10938317.0,
1588.0,4033.0,1207.0,2006.0,10938321.0,
1588.0,4036.0,1214.0,2006.0,10938325.0,
1589.0,4035.0,1223.0,2003.0,10938329.0,
1589.0,4036.0,1233.0,2005.0,10938333.0,
1586.0,4033.0,1239.0,2009.0,10938337.0,
1587.0,4036.0,1247.0,2013.0,10938341.0,
1588.0,4033.0,1254.0,2012.0,10938344.0,
1589.0,4036.0,1261.0,2013.0,10938348.0,
1588.0,4037.0,1270.0,2011.0,10938352.0,
1590.0,4035.0,1279.0,2013.0,10938356.0,
1587.0,4033.0,1284.0,2009.0,10938360.0,
1587.0,4036.0,1289.0,2011.0,10938364.0,
1590.0,4035.0,1297.0,2010.0,10938368.0,
1590.0,4035.0,1303.0,2012.0,10938372.0,
1589.0,4033.0,1308.0,2010.0,10938375.0,
1587.0,4035.0,1313.0,2015.0,10938379.0,
1587.0,4037.0,1317.0,2014.0,10938383.0,
1589.0,4036.0,1323.0,2017.0,10938387.0,
1588.0,4031.0,1330.0,2017.0,10938391.0,
1588.0,4037.0,1334.0,2022.0,10938395.0,
1587.0,4033.0,1343.0,2025.0,10938399.0,
1587.0,4036.0,1349.0,2032.0,10938402.0,
1588.0,4034.0,1363.0,2037.0,10938406.0,
1589.0,4036.0,1371.0,2046.0,10938410.0,
1591.0,4036.0,1385.0,2048.0,10938414.0,
1586.0,4034.0,1420.0,2058.0,10938421.0,
1588.0,4034.0,1442.0,2065.0,10938425.0,
1590.0,4033.0,1476.0,2070.0,10938428.0,
1590.0,4034.0,1508.0,2076.0,10938432.0,
1588.0,4036.0,1555.0,2084.0,10938436.0,
1587.0,4036.0,1606.0,2089.0,10938440.0,
1588.0,4034.0,1665.0,2096.0,10938444.0,
1589.0,4037.0,1736.0,2104.0,10938448.0,
1590.0,4034.0,1816.0,2107.0,10938452.0,
1588.0,4036.0,1908.0,2114.0,10938456.0,
1588.0,4034.0,2009.0,2120.0,10938459.0,
1587.0,4035.0,2116.0,2125.0,10938463.0,
1589.0,4035.0,2230.0,2129.0,10938467.0,
1590.0,4036.0,2350.0,2134.0,10938471.0,
1589.0,4037.0,2474.0,2138.0,10938475.0,
1587.0,4037.0,2606.0,2140.0,10938479.0,
1588.0,4036.0,2739.0,2140.0,10938483.0,
1588.0,4036.0,2872.0,2144.0,10938487.0,
1590.0,4036.0,3008.0,2145.0,10938491.0,
1590.0,4036.0,3137.0,2147.0,10938495.0,
1589.0,4033.0,3260.0,2148.0,10938498.0,
1588.0,4034.0,3383.0,2148.0,10938502.0,
1588.0,4037.0,3499.0,2149.0,10938506.0,
1590.0,4034.0,3608.0,2147.0,10938510.0,
1592.0,4034.0,3709.0,2141.0,10938514.0,
1588.0,4033.0,3799.0,2144.0,10938518.0,
1588.0,4033.0,3878.0,2141.0,10938522.0,
1589.0,4034.0,3914.0,2144.0,10938526.0,
1590.0,4035.0,3915.0,2144.0,10938529.0,
1590.0,4036.0,3914.0,2146.0,10938533.0,
1588.0,4034.0,3915.0,2146.0,10938537.0,
1587.0,4033.0,3915.0,2147.0,10938541.0,
1589.0,4033.0,3915.0,2147.0,10938545.0,
1590.0,4033.0,3915.0,2144.0,10938549.0,
1591.0,4034.0,3916.0,2146.0,10938553.0,
1588.0,4033.0,3916.0,2144.0,10938557.0,
1588.0,4034.0,3915.0,2140.0,10938560.0,
1588.0,4034.0,3915.0,2140.0,10938564.0,
1590.0,4035.0,3916.0,2134.0,10938568.0,
1590.0,4037.0,3916.0,2136.0,10938572.0,
1589.0,4035.0,3915.0,2131.0,10938576.0,
1588.0,4034.0,3914.0,2129.0,10938580.0,
1589.0,4033.0,3900.0,2130.0,10938584.0,
1590.0,4033.0,3815.0,2125.0,10938587.0,
1591.0,4035.0,3746.0,2126.0,10938591.0,
1588.0,4036.0,3671.0,2124.0,10938595.0,
1588.0,4036.0,3593.0,2121.0,10938599.0,
1588.0,4036.0,3509.0,2115.0,10938603.0,
1589.0,4037.0,3423.0,2117.0,10938607.0,
1591.0,4037.0,3336.0,2112.0,10938611.0,
1590.0,4035.0,3248.0,2111.0,10938615.0,
1588.0,4035.0,3159.0,2107.0,10938619.0,
1588.0,4038.0,3070.0,2102.0,10938623.0,
1590.0,4037.0,2981.0,2098.0,10938626.0,
1589.0,4035.0,2889.0,2095.0,10938630.0,
1590.0,4035.0,2799.0,2092.0,10938634.0,
1589.0,4034.0,2706.0,2091.0,10938638.0,
1587.0,4034.0,2607.0,2085.0,10938642.0,
1590.0,4037.0,2515.0,2086.0,10938646.0,
1589.0,4034.0,2415.0,2082.0,10938650.0,
1590.0,4036.0,2328.0,2083.0,10938654.0,
1589.0,4037.0,2243.0,2076.0,10938658.0,
1588.0,4036.0,2158.0,2079.0,10938662.0,
1589.0,4036.0,2082.0,2080.0,10938666.0,
1591.0,4034.0,2010.0,2079.0,10938670.0,
1591.0,4034.0,1941.0,2080.0,10938674.0,
1589.0,4036.0,1864.0,2084.0,10938678.0,
1589.0,4036.0,1798.0,2084.0,10938682.0,
1590.0,4037.0,1740.0,2087.0,10938686.0,
1592.0,4034.0,1684.0,2085.0,10938690.0,
1590.0,4036.0,1641.0,2088.0,10938694.0,
1588.0,4033.0,1602.0,2091.0,10938698.0,
1589.0,4036.0,1567.0,2091.0,10938702.0,
1590.0,4037.0,1536.0,2091.0,10938706.0,
1591.0,4034.0,1513.0,2089.0,10938710.0,
1590.0,4037.0,1500.0,2089.0,10938714.0,
1588.0,4036.0,1487.0,2091.0,10938718.0,
1588.0,4034.0,1487.0,2084.0,10938722.0,
1590.0,4037.0,1487.0,2084.0,10938726.0,
1591.0,4037.0,1498.0,2082.0,10938730.0,
1590.0,4035.0,1508.0,2078.0,10938734.0,
1590.0,4037.0,1523.0,2079.0,10938738.0,
1589.0,4035.0,1542.0,2073.0,10938742.0,
1590.0,4035.0,1563.0,2071.0,10938746.0,
1591.0,4033.0,1584.0,2067.0,10938749.0,
1591.0,4034.0,1606.0,2061.0,10938753.0,
1590.0,4037.0,1630.0,2065.0,10938757.0,
1589.0,4033.0,1655.0,2062.0,10938761.0,
1590.0,4036.0,1679.0,2064.0,10938765.0,
1591.0,4033.0,1707.0,2062.0,10938769.0,
1591.0,4037.0,1732.0,2067.0,10938773.0,
1590.0,4034.0,1760.0,2070.0,10938777.0,
1589.0,4034.0,1785.0,2072.0,10938781.0,
1590.0,4032.0,1809.0,2073.0,10938785.0,
1591.0,4036.0,1832.0,2076.0,10938788.0,
1591.0,4034.0,1849.0,2073.0,10938792.0,
1588.0,4036.0,1865.0,2072.0,10938796.0,
1589.0,4036.0,1878.0,2072.0,10938800.0,
1590.0,4035.0,1890.0,2070.0,10938804.0,
1591.0,4035.0,1900.0,2068.0,10938808.0,
1591.0,4035.0,1905.0,2062.0,10938812.0,
1591.0,4036.0,1908.0,2062.0,10938815.0,
1589.0,4035.0,1910.0,2059.0,10938819.0,
1590.0,4036.0,1907.0,2057.0,10938823.0,
1591.0,4036.0,1900.0,2058.0,10938827.0,
1591.0,4034.0,1893.0,2052.0,10938831.0,
1590.0,4035.0,1884.0,2057.0,10938835.0,
1588.0,4034.0,1875.0,2049.0,10938838.0,
1590.0,4036.0,1861.0,2052.0,10938842.0,
1591.0,4036.0,1847.0,2049.0,10938846.0,
1592.0,4036.0,1828.0,2050.0,10938850.0,
1591.0,4034.0,1807.0,2049.0,10938854.0,
1589.0,4034.0,1782.0,2054.0,10938858.0,
1589.0,4034.0,1760.0,2050.0,10938862.0,
1590.0,4035.0,1735.0,2051.0,10938866.0,
1590.0,4034.0,1711.0,2047.0,10938870.0,
1591.0,4036.0,1686.0,2049.0,10938873.0,
1590.0,4033.0,1663.0,2049.0,10938877.0,
1590.0,4034.0,1633.0,2046.0,10938881.0,
1590.0,4037.0,1606.0,2048.0,10938885.0,
1592.0,4034.0,1572.0,2050.0,10938889.0,
1592.0,4036.0,1546.0,2046.0,10938893.0,
1589.0,4036.0,1514.0,2045.0,10938897.0,
1590.0,4034.0,1485.0,2042.0,10938901.0,
1591.0,4034.0,1456.0,2044.0,10938905.0,
1591.0,4034.0,1422.0,2042.0,10938909.0,
1592.0,4036.0,1395.0,2044.0,10938913.0,
1590.0,4034.0,1371.0,2042.0,10938917.0,
1589.0,4036.0,1345.0,2041.0,10938920.0,
1590.0,4035.0,1320.0,2038.0,10938924.0,
1590.0,4035.0,1297.0,2037.0,10938928.0,
1592.0,4034.0,1276.0,2033.0,10938932.0,
1591.0,4034.0,1256.0,2031.0,10938936.0,
1590.0,4036.0,1236.0,2033.0,10938940.0,
1590.0,4034.0,1218.0,2029.0,10938944.0,
1592.0,4037.0,1203.0,2031.0,10938948.0,
1592.0,4035.0,1186.0,2027.0,10938951.0,
1591.0,4036.0,1175.0,2031.0,10938955.0,
1589.0,4033.0,1163.0,2023.0,10938959.0,
1590.0,4034.0,1156.0,2023.0,10938963.0,
1592.0,4034.0,1144.0,2019.0,10938967.0,
1592.0,4038.0,1138.0,2017.0,10938971.0,
1591.0,4034.0,1131.0,2012.0,10938975.0,
1590.0,4037.0,1127.0,2011.0,10938979.0,
1590.0,4034.0,1124.0,2009.0,10938983.0,
1592.0,4036.0,1118.0,2007.0,10938987.0,
1592.0,4033.0,1121.0,2006.0,10938991.0,
1591.0,4037.0,1119.0,2004.0,10938994.0,
1590.0,4036.0,1120.0,1999.0,10938998.0,
1590.0,4037.0,1122.0,1996.0,10939002.0,
1592.0,4035.0,1129.0,1991.0,10939006.0,
1592.0,4034.0,1130.0,1993.0,10939010.0,
1592.0,4037.0,1141.0,1990.0,10939014.0,
1590.0,4032.0,1148.0,1987.0,10939017.0,
1591.0,4036.0,1157.0,1985.0,10939022.0,
1592.0,4035.0,1163.0,1981.0,10939026.0,
1592.0,4036.0,1171.0,1980.0,10939030.0,
1592.0,4036.0,1178.0,1978.0,10939034.0,
1590.0,4035.0,1186.0,1974.0,10939038.0,
1590.0,4035.0,1192.0,1971.0,10939042.0,
1591.0,4036.0,1197.0,1972.0,10939046.0,
1592.0,4035.0,1201.0,1967.0,10939050.0,
1586.0,4036.0,1211.0,1968.0,10939054.0,
1590.0,4034.0,1215.0,1967.0,10939058.0,
1590.0,4036.0,1220.0,1967.0,10939062.0,
1592.0,4034.0,1226.0,1968.0,10939066.0,
1592.0,4037.0,1232.0,1971.0,10939069.0,
1591.0,4036.0,1237.0,1972.0,10939073.0,
1590.0,4037.0,1242.0,1977.0,10939077.0,
1590.0,4036.0,1248.0,1979.0,10939081.0,
1592.0,4036.0,1254.0,1984.0,10939085.0,
1592.0,4034.0,1263.0,1987.0,10939089.0,
1592.0,4036.0,1268.0,1992.0,10939093.0,
1591.0,4034.0,1276.0,1994.0,10939097.0,
1590.0,4036.0,1284.0,2002.0,10939101.0,
1591.0,4035.0,1295.0,2012.0,10939104.0,
1592.0,4034.0,1307.0,2018.0,10939108.0,
1592.0,4031.0,1326.0,2028.0,10939112.0,
1591.0,4037.0,1343.0,2042.0,10939116.0,
1590.0,4036.0,1366.0,2051.0,10939120.0,
1590.0,4036.0,1397.0,2062.0,10939124.0,
1592.0,4039.0,1431.0,2070.0,10939128.0,
1592.0,4038.0,1473.0,2081.0,10939132.0,
1591.0,4035.0,1519.0,2086.0,10939136.0,
1591.0,4036.0,1579.0,2096.0,10939140.0,
1591.0,4035.0,1640.0,2102.0,10939144.0,
1592.0,4036.0,1722.0,2114.0,10939148.0,
1593.0,4037.0,1813.0,2121.0,10939152.0,
1592.0,4034.0,1919.0,2132.0,10939157.0,
1591.0,4035.0,2016.0,2141.0,10939160.0,
1591.0,4033.0,2125.0,2147.0,10939164.0,
1592.0,4034.0,2236.0,2155.0,10939168.0,
1592.0,4035.0,2354.0,2163.0,10939172.0,
1592.0,4034.0,2475.0,2167.0,10939176.0,
1591.0,4034.0,2598.0,2176.0,10939180.0,
1591.0,4036.0,2722.0,2183.0,10939184.0,
1593.0,4035.0,2845.0,2185.0,10939188.0,
1593.0,4034.0,2973.0,2193.0,10939192.0,
1591.0,4035.0,3089.0,2196.0,10939196.0,
1589.0,4034.0,3201.0,2195.0,10939199.0,
1591.0,4035.0,3309.0,2198.0,10939203.0,
1594.0,4037.0,3405.0,2199.0,10939207.0,
1594.0,4034.0,3495.0,2199.0,10939211.0,
1592.0,4033.0,3583.0,2197.0,10939215.0,
1591.0,4037.0,3653.0,2196.0,10939219.0,
1592.0,4035.0,3722.0,2190.0,10939223.0,
1593.0,4037.0,3772.0,2191.0,10939227.0,
1593.0,4034.0,3815.0,2185.0,10939231.0,
1593.0,4034.0,3841.0,2181.0,10939235.0,
1591.0,4035.0,3861.0,2181.0,10939239.0,
1591.0,4034.0,3870.0,2177.0,10939243.0,
1591.0,4034.0,3865.0,2175.0,10939246.0,
1595.0,4036.0,3854.0,2174.0,10939250.0,
1592.0,4034.0,3831.0,2173.0,10939254.0,
1592.0,4035.0,3804.0,2172.0,10939258.0,
1591.0,4037.0,3764.0,2170.0,10939262.0,
1593.0,4036.0,3719.0,2174.0,10939266.0,
1593.0,4036.0,3668.0,2173.0,10939270.0,
1593.0,4035.0,3616.0,2172.0,10939274.0,
1591.0,4037.0,3555.0,2172.0,10939278.0,
1592.0,4035.0,3492.0,2167.0,10939282.0,
1592.0,4037.0,3423.0,2165.0,10939286.0,
1595.0,4036.0,3350.0,2164.0,10939290.0,
1593.0,4038.0,3281.0,2161.0,10939293.0,
1592.0,4033.0,3209.0,2156.0,10939297.0,
1591.0,4036.0,3132.0,2155.0,10939301.0,
1593.0,4033.0,3056.0,2155.0,10939305.0,
1594.0,4034.0,2974.0,2151.0,10939309.0,
1593.0,4034.0,2894.0,2147.0,10939313.0,
1592.0,4036.0,2815.0,2148.0,10939317.0,
1591.0,4034.0,2735.0,2148.0,10939321.0,
1592.0,4036.0,2656.0,2143.0,10939325.0,
1594.0,4034.0,2579.0,2139.0,10939328.0,
1593.0,4036.0,2498.0,2135.0,10939332.0,
1592.0,4033.0,2421.0,2135.0,10939336.0,
1592.0,4034.0,2345.0,2131.0,10939340.0,
1591.0,4036.0,2270.0,2125.0,10939344.0,
1593.0,4037.0,2195.0,2120.0,10939348.0,
1593.0,4037.0,2127.0,2112.0,10939352.0,
1593.0,4037.0,2053.0,2114.0,10939356.0,
1592.0,4036.0,1983.0,2112.0,10939360.0,
1592.0,4035.0,1919.0,2107.0,10939364.0,
1593.0,4036.0,1862.0,2109.0,10939367.0,
1594.0,4035.0,1804.0,2108.0,10939371.0,
1594.0,4033.0,1752.0,2108.0,10939375.0,
1592.0,4036.0,1704.0,2107.0,10939379.0,
1592.0,4037.0,1659.0,2104.0,10939383.0,
1593.0,4033.0,1618.0,2103.0,10939387.0,
1595.0,4037.0,1579.0,2103.0,10939391.0,
1593.0,4034.0,1549.0,2105.0,10939395.0,
1593.0,4036.0,1521.0,2107.0,10939399.0,
1592.0,4032.0,1501.0,2106.0,10939402.0,
1593.0,4034.0,1486.0,2108.0,10939406.0,
1594.0,4037.0,1474.0,2111.0,10939410.0,
1593.0,4036.0,1469.0,2113.0,10939414.0,
1592.0,4034.0,1466.0,2114.0,10939418.0,
1593.0,4036.0,1468.0,2117.0,10939422.0,
1594.0,4034.0,1471.0,2119.0,10939426.0,
1594.0,4037.0,1480.0,2120.0,10939430.0,
1593.0,4034.0,1509.0,2118.0,10939438.0,
1591.0,4037.0,1522.0,2118.0,10939442.0,
1592.0,4033.0,1540.0,2115.0,10939446.0,
1594.0,4037.0,1557.0,2114.0,10939450.0,
1594.0,4035.0,1574.0,2113.0,10939453.0,
1592.0,4035.0,1591.0,2108.0,10939457.0,
1592.0,4035.0,1609.0,2105.0,10939461.0,
1592.0,4036.0,1630.0,2103.0,10939465.0,
1595.0,4035.0,1648.0,2101.0,10939469.0,
1594.0,4037.0,1663.0,2100.0,10939473.0,
1592.0,4032.0,1683.0,2099.0,10939477.0,
1592.0,4036.0,1697.0,2094.0,10939480.0,
1593.0,4034.0,1711.0,2096.0,10939484.0,
1594.0,4036.0,1726.0,2096.0,10939488.0,
1594.0,4035.0,1737.0,2096.0,10939492.0,
1593.0,4034.0,1745.0,2094.0,10939496.0,
1592.0,4038.0,1750.0,2093.0,10939500.0,
1593.0,4035.0,1756.0,2097.0,10939504.0,
1595.0,4036.0,1762.0,2098.0,10939507.0,
1594.0,4034.0,1764.0,2094.0,10939511.0,
1593.0,4036.0,1765.0,2097.0,10939515.0,
1592.0,4036.0,1761.0,2097.0,10939519.0,
1593.0,4034.0,1757.0,2094.0,10939523.0,
1594.0,4035.0,1751.0,2092.0,10939527.0,
1594.0,4034.0,1747.0,2091.0,10939531.0,
1594.0,4035.0,1738.0,2092.0,10939535.0,
1592.0,4033.0,1728.0,2086.0,10939538.0,
1593.0,4034.0,1715.0,2083.0,10939542.0,
1594.0,4037.0,1705.0,2080.0,10939546.0,
1595.0,4035.0,1693.0,2075.0,10939550.0,
1594.0,4035.0,1678.0,2073.0,10939554.0,
1594.0,4033.0,1663.0,2068.0,10939558.0,
1592.0,4036.0,1644.0,2066.0,10939562.0,
1595.0,4035.0,1629.0,2066.0,10939566.0,
1595.0,4035.0,1609.0,2064.0,10939569.0,
1594.0,4036.0,1592.0,2063.0,10939573.0,
1594.0,4034.0,1574.0,2062.0,10939577.0,
1594.0,4036.0,1551.0,2058.0,10939581.0,
1593.0,4035.0,1531.0,2058.0,10939585.0,
1594.0,4035.0,1507.0,2055.0,10939589.0,
1594.0,4034.0,1486.0,2054.0,10939593.0,
1593.0,4035.0,1465.0,2050.0,10939597.0,
1592.0,4032.0,1443.0,2049.0,10939600.0,
1593.0,4036.0,1422.0,2043.0,10939604.0,
1595.0,4036.0,1403.0,2040.0,10939608.0,
1595.0,4035.0,1385.0,2035.0,10939612.0,
1593.0,4036.0,1364.0,2035.0,10939616.0,
1592.0,4034.0,1349.0,2029.0,10939620.0,
1594.0,4037.0,1332.0,2029.0,10939624.0,
1595.0,4034.0,1315.0,2026.0,10939628.0,
1595.0,4036.0,1300.0,2028.0,10939632.0,
1594.0,4033.0,1288.0,2025.0,10939635.0,
1593.0,4035.0,1276.0,2025.0,10939639.0,
1593.0,4035.0,1263.0,2027.0,10939643.0,
1594.0,4035.0,1252.0,2025.0,10939647.0,
1595.0,4035.0,1246.0,2026.0,10939651.0,
1593.0,4037.0,1234.0,2028.0,10939655.0,
1593.0,4034.0,1227.0,2026.0,10939659.0,
1594.0,4035.0,1222.0,2027.0,10939662.0,
1594.0,4035.0,1216.0,2027.0,10939666.0,
1596.0,4035.0,1208.0,2023.0,10939670.0,
1594.0,4036.0,1208.0,2027.0,10939674.0,
1594.0,4035.0,1203.0,2023.0,10939678.0,
1593.0,4036.0,1201.0,2025.0,10939682.0,
1594.0,4034.0,1199.0,2023.0,10939686.0,
1595.0,4035.0,1196.0,2027.0,10939690.0,
1595.0,4033.0,1195.0,2029.0,10939694.0,
1593.0,4036.0,1194.0,2028.0,10939697.0,
1593.0,4034.0,1195.0,2031.0,10939701.0,
1594.0,4034.0,1196.0,2029.0,10939705.0,
1595.0,4036.0,1197.0,2028.0,10939709.0,
1595.0,4035.0,1204.0,2029.0,10939713.0,
1594.0,4035.0,1205.0,2033.0,10939717.0,
1593.0,4034.0,1210.0,2031.0,10939720.0,
1594.0,4037.0,1214.0,2035.0,10939724.0,
1595.0,4035.0,1217.0,2034.0,10939728.0,
1594.0,4036.0,1222.0,2038.0,10939732.0,
1594.0,4035.0,1222.0,2036.0,10939736.0,
1592.0,4037.0,1228.0,2036.0,10939740.0,
1594.0,4034.0,1229.0,2037.0,10939744.0,
1596.0,4036.0,1235.0,2037.0,10939748.0,
1596.0,4035.0,1239.0,2037.0,10939751.0,
1594.0,4034.0,1245.0,2036.0,10939755.0,
1593.0,4037.0,1248.0,2035.0,10939759.0,
1594.0,4038.0,1251.0,2037.0,10939763.0,
1595.0,4036.0,1254.0,2041.0,10939767.0,
1596.0,4034.0,1256.0,2041.0,10939771.0,
1594.0,4036.0,1260.0,2046.0,10939775.0,
1592.0,4034.0,1263.0,2049.0,10939779.0,
1594.0,4037.0,1267.0,2053.0,10939783.0,
1595.0,4033.0,1272.0,2054.0,10939786.0,
1595.0,4035.0,1282.0,2058.0,10939790.0,
1594.0,4035.0,1289.0,2064.0,10939794.0,
1593.0,4035.0,1294.0,2066.0,10939798.0,
1594.0,4035.0,1306.0,2077.0,10939802.0,
1594.0,4033.0,1316.0,2084.0,10939806.0,
1596.0,4036.0,1331.0,2095.0,10939810.0,
1595.0,4034.0,1352.0,2095.0,10939813.0,
1594.0,4032.0,1373.0,2107.0,10939817.0,
1593.0,4034.0,1398.0,2115.0,10939821.0,
1595.0,4036.0,1428.0,2126.0,10939825.0,
1596.0,4033.0,1466.0,2134.0,10939829.0,
1595.0,4036.0,1508.0,2141.0,10939833.0,
1594.0,4034.0,1559.0,2148.0,10939837.0,
1594.0,4035.0,1612.0,2154.0,10939840.0,
1594.0,4035.0,1672.0,2165.0,10939844.0,
1596.0,4036.0,1740.0,2171.0,10939848.0,
1595.0,4035.0,1813.0,2177.0,10939852.0,
1595.0,4034.0,1891.0,2184.0,10939856.0,
1594.0,4036.0,1972.0,2192.0,10939860.0,
1594.0,4034.0,2062.0,2196.0,10939864.0,
1595.0,4034.0,2153.0,2200.0,10939868.0,
1596.0,4034.0,2244.0,2206.0,10939871.0,
1594.0,4034.0,2345.0,2213.0,10939875.0,
1592.0,4034.0,2439.0,2215.0,10939879.0,
1594.0,4036.0,2537.0,2222.0,10939883.0,
1594.0,4035.0,2627.0,2225.0,10939887.0,
1596.0,4036.0,2717.0,2224.0,10939891.0,
1595.0,4036.0,2804.0,2229.0,10939895.0,
1594.0,4036.0,2881.0,2230.0,10939899.0,
1595.0,4037.0,2956.0,2228.0,10939902.0,
1595.0,4038.0,3027.0,2225.0,10939906.0,
1597.0,4034.0,3089.0,2227.0,10939910.0,
1596.0,4036.0,3141.0,2229.0,10939914.0,
1594.0,4035.0,3186.0,2225.0,10939918.0,
1595.0,4036.0,3230.0,2222.0,10939922.0,
1595.0,4036.0,3261.0,2223.0,10939926.0,
1597.0,4035.0,3286.0,2222.0,10939929.0,
1597.0,4034.0,3303.0,2224.0,10939933.0,
1595.0,4036.0,3312.0,2222.0,10939937.0,
1594.0,4033.0,3315.0,2222.0,10939941.0,
1595.0,4034.0,3309.0,2218.0,10939945.0,
1597.0,4034.0,3296.0,2219.0,10939949.0,
1597.0,4036.0,3279.0,2220.0,10939953.0,
1595.0,4036.0,3251.0,2217.0,10939957.0,
1594.0,4034.0,3218.0,2213.0,10939960.0,
1595.0,4037.0,3181.0,2213.0,10939964.0,
1596.0,4035.0,3139.0,2213.0,10939968.0,
1596.0,4034.0,3095.0,2210.0,10939972.0,
1596.0,4033.0,3044.0,2206.0,10939976.0,
1594.0,4034.0,2995.0,2204.0,10939980.0,
1595.0,4035.0,2943.0,2200.0,10939984.0,
1596.0,4034.0,2892.0,2196.0,10939987.0,
1596.0,4034.0,2835.0,2191.0,10939991.0,
1596.0,4034.0,2780.0,2185.0,10939995.0,
1594.0,4036.0,2718.0,2184.0,10939999.0,
1595.0,4036.0,2660.0,2178.0,10940003.0,
1597.0,4037.0,2597.0,2175.0,10940007.0,
1597.0,4035.0,2539.0,2169.0,10940011.0,
1596.0,4036.0,2476.0,2166.0,10940015.0,
1595.0,4036.0,2417.0,2158.0,10940018.0,
1594.0,4034.0,2352.0,2152.0,10940022.0,
1596.0,4036.0,2287.0,2157.0,10940026.0,
1597.0,4034.0,2227.0,2147.0,10940030.0,
1596.0,4036.0,2173.0,2146.0,10940034.0,
1595.0,4034.0,2113.0,2143.0,10940038.0,
1594.0,4034.0,2054.0,2141.0,10940042.0,
1596.0,4034.0,2002.0,2139.0,10940045.0,
1597.0,4033.0,1947.0,2138.0,10940049.0,
1597.0,4033.0,1894.0,2138.0,10940053.0,
1595.0,4036.0,1847.0,2136.0,10940057.0,
1594.0,4034.0,1803.0,2135.0,10940061.0,
1596.0,4038.0,1756.0,2139.0,10940065.0,
1597.0,4035.0,1719.0,2138.0,10940069.0,
1596.0,4036.0,1679.0,2137.0,10940073.0,
1596.0,4035.0,1645.0,2135.0,10940076.0,
1595.0,4035.0,1617.0,2137.0,10940080.0,
1596.0,4035.0,1592.0,2141.0,10940084.0,
1598.0,4036.0,1570.0,2143.0,10940088.0,
1597.0,4037.0,1551.0,2144.0,10940092.0,
1596.0,4034.0,1534.0,2148.0,10940096.0,
1595.0,4036.0,1521.0,2151.0,10940100.0,
1595.0,4033.0,1510.0,2153.0,10940103.0,
1597.0,4034.0,1505.0,2154.0,10940107.0,
1596.0,4035.0,1499.0,2158.0,10940111.0,
1596.0,4036.0,1498.0,2159.0,10940115.0,
1595.0,4036.0,1501.0,2166.0,10940119.0,
1596.0,4034.0,1504.0,2159.0,10940123.0,
1596.0,4036.0,1510.0,2163.0,10940127.0,
1598.0,4035.0,1521.0,2165.0,10940131.0,
1596.0,4037.0,1532.0,2165.0,10940135.0,
1594.0,4034.0,1541.0,2164.0,10940138.0,
1594.0,4037.0,1553.0,2166.0,10940142.0,
1596.0,4037.0,1563.0,2163.0,10940146.0,
1597.0,4033.0,1579.0,2162.0,10940150.0,
1596.0,4036.0,1593.0,2161.0,10940154.0,
1596.0,4034.0,1607.0,2156.0,10940158.0,
1595.0,4035.0,1621.0,2156.0,10940161.0,
1596.0,4033.0,1637.0,2151.0,10940165.0,
1598.0,4038.0,1649.0,2148.0,10940169.0,
1597.0,4035.0,1662.0,2141.0,10940173.0,
1596.0,4036.0,1669.0,2138.0,10940177.0,
1594.0,4033.0,1679.0,2132.0,10940181.0,
1596.0,4037.0,1685.0,2126.0,10940185.0,
1598.0,4035.0,1695.0,2122.0,10940189.0,
1597.0,4035.0,1696.0,2116.0,10940192.0,
1596.0,4034.0,1697.0,2113.0,10940196.0,
1595.0,4036.0,1698.0,2110.0,10940200.0,
1596.0,4037.0,1695.0,2110.0,10940204.0,
1597.0,4035.0,1693.0,2097.0,10940208.0,
1596.0,4035.0,1688.0,2096.0,10940212.0,
1596.0,4033.0,1683.0,2092.0,10940216.0,
1595.0,4035.0,1675.0,2088.0,10940220.0,
1596.0,4035.0,1667.0,2082.0,10940224.0,
1597.0,4037.0,1659.0,2080.0,10940227.0,
1597.0,4034.0,1651.0,2075.0,10940231.0,
1596.0,4034.0,1637.0,2074.0,10940235.0,
1595.0,4036.0,1628.0,2072.0,10940239.0,
1595.0,4035.0,1614.0,2065.0,10940243.0,
1596.0,4036.0,1601.0,2065.0,10940247.0,
1597.0,4035.0,1587.0,2060.0,10940251.0,
1598.0,4038.0,1571.0,2062.0,10940255.0,
1595.0,4035.0,1559.0,2059.0,10940259.0,
1595.0,4036.0,1545.0,2058.0,10940262.0,
1596.0,4033.0,1530.0,2059.0,10940266.0,
1597.0,4036.0,1516.0,2057.0,10940270.0,
1597.0,4034.0,1503.0,2056.0,10940274.0,
1596.0,4034.0,1486.0,2057.0,10940278.0,
1595.0,4037.0,1470.0,2054.0,10940282.0,
1597.0,4034.0,1457.0,2053.0,10940286.0,
1598.0,4037.0,1442.0,2058.0,10940290.0,
1598.0,4034.0,1430.0,2057.0,10940293.0,
1595.0,4034.0,1414.0,2058.0,10940297.0,
1595.0,4034.0,1401.0,2060.0,10940301.0,
1597.0,4037.0,1384.0,2061.0,10940305.0,
1598.0,4035.0,1373.0,2060.0,10940309.0,
1598.0,4034.0,1362.0,2058.0,10940313.0,
1597.0,4036.0,1350.0,2062.0,10940317.0,
1597.0,4035.0,1341.0,2059.0,10940321.0,
1596.0,4037.0,1331.0,2057.0,10940325.0,
1596.0,4035.0,1324.0,2048.0,10940328.0,
1597.0,4033.0,1316.0,2053.0,10940332.0,
1596.0,4036.0,1311.0,2053.0,10940336.0,
1596.0,4035.0,1305.0,2050.0,10940340.0,
1596.0,4034.0,1302.0,2046.0,10940344.0,
1597.0,4037.0,1299.0,2049.0,10940348.0,
1597.0,4033.0,1295.0,2044.0,10940352.0,
1597.0,4036.0,1293.0,2046.0,10940355.0,
1597.0,4034.0,1289.0,2044.0,10940359.0,
1596.0,4036.0,1285.0,2045.0,10940363.0,
1597.0,4037.0,1280.0,2044.0,10940367.0,
1598.0,4034.0,1277.0,2039.0,10940371.0,
1596.0,4037.0,1273.0,2042.0,10940375.0,
1594.0,4034.0,1272.0,2035.0,10940379.0,
1596.0,4037.0,1271.0,2034.0,10940383.0,
1597.0,4035.0,1268.0,2030.0,10940387.0,
1598.0,4037.0,1270.0,2029.0,10940390.0,
1597.0,4036.0,1271.0,2025.0,10940394.0,
1596.0,4037.0,1272.0,2022.0,10940398.0,
1596.0,4037.0,1270.0,2019.0,10940402.0,
1597.0,4034.0,1273.0,2018.0,10940406.0,
1598.0,4036.0,1270.0,2017.0,10940410.0,
1597.0,4036.0,1271.0,2012.0,10940413.0,
1596.0,4037.0,1270.0,2013.0,10940417.0,
1595.0,4035.0,1272.0,2008.0,10940421.0,
1597.0,4035.0,1273.0,2004.0,10940425.0,
1597.0,4037.0,1275.0,2005.0,10940429.0,
1598.0,4037.0,1279.0,2001.0,10940433.0,
1597.0,4036.0,1282.0,2002.0,10940437.0,
1595.0,4035.0,1286.0,1998.0,10940441.0,
1596.0,4036.0,1286.0,1997.0,10940444.0,
1599.0,4035.0,1291.0,1990.0,10940450.0,
1598.0,4035.0,1293.0,1990.0,10940454.0,
1596.0,4036.0,1299.0,1987.0,10940458.0,
1596.0,4035.0,1301.0,1987.0,10940462.0,
1598.0,4037.0,1304.0,1989.0,10940466.0,
1598.0,4034.0,1309.0,1991.0,10940470.0,
1598.0,4035.0,1307.0,1997.0,10940473.0,
1597.0,4035.0,1313.0,2002.0,10940477.0,
1597.0,4035.0,1313.0,2010.0,10940481.0,
1597.0,4036.0,1315.0,2019.0,10940485.0,
1598.0,4036.0,1320.0,2026.0,10940489.0,
1598.0,4034.0,1329.0,2033.0,10940493.0,
1597.0,4037.0,1336.0,2040.0,10940497.0,
1596.0,4035.0,1345.0,2045.0,10940501.0,
1597.0,4037.0,1353.0,2049.0,10940504.0,
1598.0,4036.0,1371.0,2054.0,10940508.0,
1598.0,4034.0,1385.0,2054.0,10940512.0,
1597.0,4035.0,1408.0,2059.0,10940516.0,
1596.0,4037.0,1427.0,2063.0,10940520.0,
1596.0,4035.0,1455.0,2065.0,10940524.0,
1598.0,4035.0,1486.0,2067.0,10940528.0,
1599.0,4035.0,1520.0,2066.0,10940531.0,
1597.0,4035.0,1563.0,2070.0,10940535.0,
1596.0,4035.0,1610.0,2071.0,10940539.0,
1596.0,4033.0,1661.0,2068.0,10940543.0,
1597.0,4034.0,1717.0,2072.0,10940547.0,
1599.0,4035.0,1780.0,2069.0,10940551.0,
1597.0,4035.0,1846.0,2073.0,10940555.0,
1597.0,4034.0,1914.0,2072.0,10940559.0,
1596.0,4036.0,1987.0,2076.0,10940563.0,
1598.0,4034.0,2061.0,2079.0,10940566.0,
1598.0,4035.0,2135.0,2082.0,10940570.0,
1598.0,4035.0,2213.0,2086.0,10940574.0,
1596.0,4034.0,2293.0,2088.0,10940578.0,
1595.0,4035.0,2368.0,2093.0,10940582.0,
1597.0,4037.0,2441.0,2097.0,10940586.0,
1598.0,4036.0,2507.0,2101.0,10940590.0,
1599.0,4035.0,2575.0,2106.0,10940594.0,
1597.0,4037.0,2634.0,2108.0,10940597.0,
1597.0,4033.0,2695.0,2115.0,10940601.0,
1597.0,4036.0,2746.0,2120.0,10940605.0,
1598.0,4035.0,2792.0,2125.0,10940609.0,
1597.0,4034.0,2835.0,2127.0,10940613.0,
1596.0,4034.0,2870.0,2132.0,10940617.0,
1596.0,4035.0,2896.0,2134.0,10940621.0,
1597.0,4034.0,2925.0,2141.0,10940625.0,
1597.0,4034.0,2940.0,2146.0,10940629.0,
1598.0,4033.0,2957.0,2153.0,10940632.0,
1597.0,4036.0,2965.0,2157.0,10940636.0,
1596.0,4035.0,2968.0,2161.0,10940640.0,
1597.0,4037.0,2963.0,2172.0,10940644.0,
1598.0,4035.0,2954.0,2175.0,10940648.0,
1597.0,4032.0,2942.0,2185.0,10940652.0,
1597.0,4035.0,2922.0,2191.0,10940656.0,
1595.0,4034.0,2902.0,2199.0,10940660.0,
1597.0,4034.0,2878.0,2204.0,10940663.0,
1598.0,4035.0,2851.0,2214.0,10940667.0,
1599.0,4033.0,2820.0,2219.0,10940671.0,
1597.0,4036.0,2789.0,2224.0,10940675.0,
1596.0,4034.0,2756.0,2229.0,10940679.0,
1597.0,4035.0,2721.0,2231.0,10940683.0,
1599.0,4034.0,2681.0,2232.0,10940687.0,
1598.0,4034.0,2641.0,2233.0,10940691.0,
1597.0,4034.0,2600.0,2236.0,10940695.0,
1597.0,4033.0,2562.0,2232.0,10940698.0,
1595.0,4034.0,2517.0,2235.0,10940702.0,
1599.0,4034.0,2476.0,2233.0,10940706.0,
1599.0,4036.0,2432.0,2235.0,10940710.0,
1598.0,4035.0,2388.0,2234.0,10940714.0,
1598.0,4036.0,2348.0,2231.0,10940718.0,
1596.0,4037.0,2299.0,2228.0,10940722.0,
1598.0,4036.0,2252.0,2226.0,10940726.0,
1598.0,4037.0,2204.0,2222.0,10940729.0,
1599.0,4034.0,2156.0,2216.0,10940733.0,
1599.0,4037.0,2108.0,2215.0,10940737.0,
1597.0,4034.0,2063.0,2212.0,10940741.0,
1598.0,4034.0,2020.0,2213.0,10940745.0,
1599.0,4036.0,1976.0,2215.0,10940749.0,
1601.0,4034.0,1935.0,2214.0,10940753.0,
1598.0,4037.0,1895.0,2218.0,10940757.0,
1597.0,4035.0,1859.0,2218.0,10940760.0,
1599.0,4036.0,1823.0,2216.0,10940764.0,
1600.0,4034.0,1790.0,2214.0,10940768.0,
1600.0,4035.0,1760.0,2211.0,10940772.0,
1599.0,4037.0,1729.0,2215.0,10940776.0,
1597.0,4036.0,1704.0,2211.0,10940780.0,
1598.0,4037.0,1679.0,2212.0,10940784.0,
1599.0,4036.0,1658.0,2211.0,10940787.0,
1600.0,4034.0,1640.0,2207.0,10940791.0,
1599.0,4036.0,1622.0,2210.0,10940795.0,
1597.0,4037.0,1611.0,2210.0,10940799.0,
1599.0,4036.0,1601.0,2209.0,10940803.0,
1599.0,4038.0,1595.0,2210.0,10940807.0,
1600.0,4035.0,1592.0,2210.0,10940811.0,
1598.0,4038.0,1586.0,2209.0,10940814.0,
1597.0,4036.0,1589.0,2207.0,10940818.0,
1598.0,4035.0,1595.0,2204.0,10940822.0,
1599.0,4034.0,1594.0,2199.0,10940826.0,
1599.0,4038.0,1601.0,2195.0,10940830.0,
1599.0,4034.0,1609.0,2193.0,10940834.0,
1598.0,4036.0,1617.0,2192.0,10940838.0,
1599.0,4033.0,1627.0,2186.0,10940842.0,
1599.0,4036.0,1635.0,2185.0,10940846.0,
1598.0,4034.0,1647.0,2185.0,10940849.0,
1599.0,4036.0,1658.0,2183.0,10940853.0,
1599.0,4035.0,1670.0,2182.0,10940857.0,
1597.0,4035.0,1681.0,2181.0,10940861.0,
1598.0,4035.0,1695.0,2181.0,10940865.0,
1600.0,4036.0,1704.0,2179.0,10940869.0,
1599.0,4033.0,1715.0,2175.0,10940873.0,
1597.0,4036.0,1720.0,2175.0,10940877.0,
1598.0,4034.0,1729.0,2170.0,10940881.0,
1598.0,4037.0,1738.0,2168.0,10940884.0,
1600.0,4036.0,1747.0,2161.0,10940888.0,
1600.0,4035.0,1756.0,2157.0,10940892.0,
1598.0,4036.0,1762.0,2151.0,10940896.0,
1598.0,4034.0,1767.0,2135.0,10940900.0,
1599.0,4038.0,1771.0,2140.0,10940904.0,
1599.0,4035.0,1774.0,2135.0,10940908.0,
1599.0,4037.0,1776.0,2135.0,10940912.0,
1599.0,4035.0,1776.0,2131.0,10940915.0,
1598.0,4033.0,1774.0,2128.0,10940919.0,
1598.0,4035.0,1772.0,2127.0,10940923.0,
1600.0,4033.0,1772.0,2123.0,10940927.0,
1600.0,4036.0,1768.0,2121.0,10940931.0,
1599.0,4035.0,1763.0,2118.0,10940935.0,
1597.0,4036.0,1759.0,2110.0,10940939.0,
1599.0,4034.0,1752.0,2108.0,10940943.0,
1599.0,4038.0,1745.0,2106.0,10940946.0,
1600.0,4034.0,1738.0,2104.0,10940950.0,
1599.0,4036.0,1733.0,2104.0,10940954.0,
1597.0,4036.0,1726.0,2099.0,10940958.0,
1596.0,4033.0,1722.0,2099.0,10940962.0,
1599.0,4035.0,1718.0,2099.0,10940966.0,
1601.0,4035.0,1711.0,2094.0,10940970.0,
1599.0,4035.0,1707.0,2095.0,10940973.0,
1598.0,4035.0,1705.0,2088.0,10940977.0,
1597.0,4034.0,1702.0,2086.0,10940981.0,
1600.0,4034.0,1700.0,2082.0,10940985.0,
1600.0,4036.0,1698.0,2079.0,10940989.0,
1600.0,4034.0,1696.0,2072.0,10940993.0,
1597.0,4037.0,1694.0,2068.0,10940997.0,
1597.0,4034.0,1690.0,2062.0,10941001.0,
1598.0,4036.0,1686.0,2058.0,10941004.0,
1599.0,4034.0,1683.0,2051.0,10941008.0,
1599.0,4035.0,1677.0,2049.0,10941012.0,
1599.0,4038.0,1670.0,2046.0,10941016.0,
1597.0,4033.0,1662.0,2038.0,10941020.0,
1598.0,4037.0,1654.0,2038.0,10941024.0,
1600.0,4035.0,1647.0,2033.0,10941028.0,
1599.0,4037.0,1637.0,2029.0,10941032.0,
1598.0,4034.0,1631.0,2024.0,10941035.0,
1598.0,4036.0,1623.0,2025.0,10941039.0,
1597.0,4035.0,1614.0,2021.0,10941043.0,
1598.0,4036.0,1609.0,2018.0,10941047.0,
1600.0,4034.0,1601.0,2018.0,10941051.0,
1598.0,4037.0,1594.0,2019.0,10941055.0,
1597.0,4034.0,1586.0,2014.0,10941059.0,
1597.0,4036.0,1576.0,2016.0,10941063.0,
1597.0,4036.0,1569.0,2014.0,10941066.0,
1599.0,4038.0,1561.0,2015.0,10941070.0,
1598.0,4034.0,1554.0,2014.0,10941074.0,
1597.0,4036.0,1546.0,2021.0,10941078.0,
1597.0,4037.0,1539.0,2020.0,10941082.0,
1598.0,4036.0,1534.0,2026.0,10941086.0,
1598.0,4035.0,1528.0,2031.0,10941089.0,
1599.0,4034.0,1524.0,2034.0,10941093.0,
1596.0,4037.0,1520.0,2038.0,10941097.0,
1596.0,4038.0,1518.0,2042.0,10941101.0,
1597.0,4036.0,1515.0,2047.0,10941105.0,
1598.0,4037.0,1511.0,2051.0,10941109.0,
1598.0,4034.0,1509.0,2051.0,10941113.0,
1597.0,4036.0,1506.0,2063.0,10941117.0,
1596.0,4035.0,1506.0,2061.0,10941120.0,
1597.0,4035.0,1507.0,2071.0,10941124.0,
1600.0,4038.0,1507.0,2079.0,10941128.0,
1598.0,4037.0,1506.0,2087.0,10941132.0,
1597.0,4034.0,1510.0,2095.0,10941136.0,
1596.0,4037.0,1511.0,2104.0,10941140.0,
1598.0,4035.0,1514.0,2109.0,10941144.0,
1598.0,4037.0,1517.0,2116.0,10941148.0,
1601.0,4035.0,1523.0,2119.0,10941152.0,
1598.0,4077.0,1522.0,2129.0,10941155.0,
1599.0,4035.0,1534.0,2129.0,10941159.0,
1597.0,4037.0,1538.0,2135.0,10941163.0,
1598.0,4036.0,1546.0,2144.0,10941167.0,
1599.0,4036.0,1555.0,2152.0,10941171.0,
1598.0,4034.0,1565.0,2159.0,10941175.0,
1597.0,4036.0,1576.0,2165.0,10941179.0,
1596.0,4035.0,1588.0,2182.0,10941183.0,
1598.0,4036.0,1601.0,2194.0,10941186.0,
1599.0,4034.0,1619.0,2204.0,10941190.0,
1598.0,4036.0,1638.0,2220.0,10941194.0,
1596.0,4037.0,1657.0,2235.0,10941198.0,
1597.0,4034.0,1681.0,2249.0,10941202.0,
1598.0,4037.0,1710.0,2267.0,10941206.0,
1599.0,4034.0,1739.0,2277.0,10941210.0,
1598.0,4035.0,1776.0,2293.0,10941214.0,
1597.0,4033.0,1815.0,2307.0,10941217.0,
1596.0,4033.0,1861.0,2321.0,10941221.0,
1597.0,4035.0,1906.0,2335.0,10941225.0,
1599.0,4035.0,1958.0,2341.0,10941229.0,
1598.0,4035.0,2015.0,2350.0,10941233.0,
1596.0,4035.0,2072.0,2353.0,10941237.0,
1596.0,4034.0,2136.0,2357.0,10941241.0,
1597.0,4035.0,2202.0,2355.0,10941244.0,
1599.0,4034.0,2268.0,2358.0,10941248.0,
1598.0,4034.0,2342.0,2357.0,10941252.0,
1597.0,4037.0,2410.0,2360.0,10941256.0,
1597.0,4036.0,2482.0,2356.0,10941260.0,
1598.0,4035.0,2551.0,2356.0,10941264.0,
1598.0,4034.0,2617.0,2357.0,10941268.0,
1598.0,4034.0,2685.0,2354.0,10941272.0,
1598.0,4034.0,2745.0,2351.0,10941275.0,
1596.0,4035.0,2808.0,2349.0,10941279.0,
1598.0,4036.0,2861.0,2348.0,10941283.0,
1598.0,4036.0,2912.0,2343.0,10941287.0,
1598.0,4036.0,2957.0,2339.0,10941291.0,
1598.0,4037.0,2997.0,2337.0,10941295.0,
1597.0,4039.0,3034.0,2331.0,10941299.0,
1598.0,4037.0,3063.0,2324.0,10941303.0,
1596.0,4037.0,3084.0,2318.0,10941306.0,
1599.0,4033.0,3105.0,2310.0,10941310.0,
1598.0,4036.0,3114.0,2308.0,10941314.0,
1597.0,4036.0,3123.0,2298.0,10941318.0,
1597.0,4034.0,3121.0,2291.0,10941322.0,
1597.0,4034.0,3118.0,2284.0,10941326.0,
1599.0,4032.0,3110.0,2273.0,10941330.0,
1598.0,4033.0,3098.0,2263.0,10941334.0,
1598.0,4035.0,3078.0,2256.0,10941337.0,
1597.0,4034.0,3058.0,2244.0,10941341.0,
1597.0,4036.0,3032.0,2231.0,10941345.0,
1598.0,4036.0,3001.0,2222.0,10941349.0,
1598.0,4034.0,2971.0,2208.0,10941353.0,
1596.0,4034.0,2934.0,2195.0,10941357.0,
1596.0,4034.0,2896.0,2181.0,10941361.0,
1597.0,4035.0,2855.0,2170.0,10941365.0,
1599.0,4035.0,2812.0,2156.0,10941368.0,
1598.0,4034.0,2763.0,2145.0,10941372.0,
1597.0,4033.0,2715.0,2138.0,10941376.0,
1596.0,4035.0,2658.0,2132.0,10941380.0,
1597.0,4035.0,2605.0,2128.0,10941384.0,
1599.0,4036.0,2549.0,2130.0,10941388.0,
1597.0,4036.0,2494.0,2136.0,10941392.0,
1597.0,4037.0,2439.0,2142.0,10941396.0,
1596.0,4037.0,2386.0,2149.0,10941400.0,
1597.0,4037.0,2333.0,2154.0,10941404.0,
1598.0,4037.0,2283.0,2161.0,10941408.0,
1598.0,4038.0,2231.0,2163.0,10941411.0,
1597.0,4035.0,2177.0,2171.0,10941415.0,
1596.0,4036.0,2129.0,2177.0,10941419.0,
1597.0,4037.0,2080.0,2177.0,10941423.0,
1598.0,4037.0,2030.0,2178.0,10941427.0,
1599.0,4036.0,1987.0,2180.0,10941431.0,
1598.0,4035.0,1949.0,2181.0,10941435.0,
1595.0,4036.0,1906.0,2188.0,10941439.0,
1596.0,4034.0,1874.0,2188.0,10941443.0,
1597.0,4038.0,1843.0,2197.0,10941447.0,
1597.0,4033.0,1817.0,2200.0,10941450.0,
1597.0,4035.0,1792.0,2205.0,10941454.0,
1596.0,4036.0,1770.0,2220.0,10941458.0,
1597.0,4038.0,1740.0,2234.0,10941465.0,
1599.0,4036.0,1724.0,2242.0,10941468.0,
1598.0,4034.0,1717.0,2254.0,10941472.0,
1596.0,4037.0,1710.0,2265.0,10941476.0,
1596.0,4037.0,1706.0,2273.0,10941480.0,
1596.0,4034.0,1705.0,2282.0,10941484.0,
1598.0,4037.0,1707.0,2293.0,10941488.0,
1599.0,4035.0,1713.0,2300.0,10941492.0,
1597.0,4035.0,1719.0,2309.0,10941496.0,
1596.0,4035.0,1728.0,2310.0,10941500.0,
1597.0,4037.0,1737.0,2318.0,10941503.0,
1598.0,4036.0,1753.0,2320.0,10941507.0,
1599.0,4037.0,1764.0,2328.0,10941511.0,
1598.0,4038.0,1780.0,2328.0,10941515.0,
1595.0,4034.0,1795.0,2331.0,10941519.0,
1597.0,4037.0,1811.0,2336.0,10941523.0,
1598.0,4035.0,1826.0,2336.0,10941527.0,
1598.0,4036.0,1837.0,2340.0,10941531.0,
1598.0,4035.0,1853.0,2344.0,10941534.0,
1597.0,4034.0,1871.0,2344.0,10941538.0,
1596.0,4034.0,1881.0,2344.0,10941542.0,
1597.0,4034.0,1894.0,2346.0,10941546.0,
1598.0,4037.0,1908.0,2351.0,10941550.0,
1599.0,4033.0,1921.0,2348.0,10941554.0,
1596.0,4037.0,1931.0,2351.0,10941558.0,
1596.0,4034.0,1942.0,2350.0,10941562.0,
1597.0,4037.0,1953.0,2351.0,10941566.0,
1599.0,4035.0,1959.0,2352.0,10941569.0,
1598.0,4035.0,1967.0,2349.0,10941573.0,
1595.0,4036.0,1970.0,2349.0,10941577.0,
1596.0,4035.0,1973.0,2350.0,10941581.0,
1597.0,4036.0,1972.0,2350.0,10941585.0,
1599.0,4035.0,1969.0,2348.0,10941589.0,
1600.0,4037.0,1969.0,2349.0,10941593.0,
1597.0,4033.0,1966.0,2346.0,10941597.0,
1596.0,4036.0,1963.0,2346.0,10941601.0,
1597.0,4036.0,1959.0,2342.0,10941604.0,
1599.0,4034.0,1954.0,2339.0,10941608.0,
1598.0,4037.0,1944.0,2336.0,10941612.0,
1597.0,4037.0,1937.0,2333.0,10941616.0,
1596.0,4034.0,1931.0,2327.0,10941620.0,
1597.0,4038.0,1916.0,2320.0,10941624.0,
1598.0,4033.0,1904.0,2311.0,10941628.0,
1599.0,4035.0,1890.0,2310.0,10941632.0,
1598.0,4035.0,1877.0,2300.0,10941635.0,
1596.0,4035.0,1867.0,2292.0,10941639.0,
1597.0,4038.0,1855.0,2286.0,10941643.0,
1598.0,4034.0,1843.0,2274.0,10941647.0,
1598.0,4036.0,1830.0,2264.0,10941651.0,
1598.0,4034.0,1816.0,2251.0,10941655.0,
1597.0,4037.0,1802.0,2239.0,10941658.0,
1598.0,4036.0,1789.0,2228.0,10941663.0,
1599.0,4033.0,1774.0,2216.0,10941667.0,
1598.0,4038.0,1761.0,2203.0,10941670.0,
1598.0,4036.0,1747.0,2191.0,10941674.0,
1597.0,4037.0,1734.0,2177.0,10941678.0,
1596.0,4034.0,1723.0,2166.0,10941682.0,
1598.0,4036.0,1709.0,2157.0,10941686.0,
1598.0,4035.0,1695.0,2141.0,10941690.0,
1594.0,4036.0,1687.0,2134.0,10941694.0,
1597.0,4033.0,1679.0,2124.0,10941697.0,
1597.0,4035.0,1670.0,2111.0,10941701.0,
1597.0,4035.0,1659.0,2100.0,10941705.0,
1598.0,4036.0,1653.0,2092.0,10941709.0,
1599.0,4035.0,1646.0,2080.0,10941713.0,
1597.0,4036.0,1641.0,2071.0,10941717.0,
1597.0,4033.0,1634.0,2062.0,10941721.0,
1597.0,4038.0,1631.0,2053.0,10941724.0,
1598.0,4034.0,1628.0,2042.0,10941728.0,
1599.0,4037.0,1624.0,2032.0,10941732.0,
1598.0,4035.0,1623.0,2025.0,10941736.0,
1597.0,4034.0,1620.0,2018.0,10941740.0,
1597.0,4035.0,1621.0,2010.0,10941744.0,
1598.0,4034.0,1624.0,2004.0,10941748.0,
1598.0,4036.0,1622.0,1998.0,10941752.0,
1597.0,4035.0,1630.0,1992.0,10941755.0,
1596.0,4036.0,1637.0,1984.0,10941759.0,
1597.0,4037.0,1644.0,1980.0,10941763.0,
1597.0,4035.0,1648.0,1977.0,10941767.0,
1599.0,4034.0,1656.0,1970.0,10941771.0,
1598.0,4036.0,1661.0,1967.0,10941775.0,
1596.0,4034.0,1668.0,1966.0,10941779.0,
1598.0,4037.0,1675.0,1965.0,10941783.0,
1598.0,4035.0,1680.0,1957.0,10941786.0,
1599.0,4033.0,1682.0,1960.0,10941790.0,
1598.0,4035.0,1685.0,1956.0,10941794.0,
1596.0,4034.0,1684.0,1956.0,10941798.0,
1595.0,4036.0,1687.0,1961.0,10941802.0,
1596.0,4034.0,1684.0,1960.0,10941806.0,
1598.0,4037.0,1687.0,1966.0,10941810.0,
1598.0,4035.0,1689.0,1967.0,10941813.0,
1593.0,4036.0,1689.0,1968.0,10941817.0,
1597.0,4035.0,1688.0,1977.0,10941821.0,
1597.0,4036.0,1688.0,1984.0,10941825.0,
1598.0,4037.0,1687.0,1989.0,10941829.0,
1599.0,4035.0,1690.0,1993.0,10941833.0,
1597.0,4037.0,1685.0,2001.0,10941837.0,
1596.0,4034.0,1685.0,2007.0,10941840.0,
1597.0,4037.0,1681.0,2015.0,10941844.0,
1598.0,4034.0,1680.0,2019.0,10941848.0,
1598.0,4035.0,1678.0,2030.0,10941852.0,
1597.0,4035.0,1680.0,2042.0,10941856.0,
1597.0,4038.0,1681.0,2055.0,10941860.0,
1596.0,4034.0,1686.0,2065.0,10941864.0,
1598.0,4036.0,1694.0,2081.0,10941868.0,
1598.0,4035.0,1704.0,2094.0,10941872.0,
1598.0,4037.0,1715.0,2111.0,10941875.0,
1596.0,4034.0,1732.0,2122.0,10941879.0,
1597.0,4035.0,1752.0,2136.0,10941883.0,
1598.0,4033.0,1778.0,2153.0,10941887.0,
1599.0,4038.0,1804.0,2165.0,10941891.0,
1598.0,4035.0,1843.0,2176.0,10941895.0,
1597.0,4036.0,1881.0,2187.0,10941899.0,
1597.0,4036.0,1923.0,2200.0,10941903.0,
1598.0,4036.0,1971.0,2207.0,10941907.0,
1600.0,4035.0,2026.0,2215.0,10941910.0,
1598.0,4034.0,2082.0,2226.0,10941914.0,
1596.0,4036.0,2148.0,2235.0,10941918.0,
1597.0,4036.0,2216.0,2239.0,10941922.0,
1598.0,4036.0,2284.0,2244.0,10941926.0,
1599.0,4036.0,2356.0,2251.0,10941930.0,
1598.0,4037.0,2425.0,2255.0,10941934.0,
1597.0,4036.0,2501.0,2261.0,10941938.0,
1596.0,4036.0,2571.0,2262.0,10941941.0,
1598.0,4034.0,2640.0,2265.0,10941945.0,
1598.0,4036.0,2710.0,2267.0,10941949.0,
1598.0,4037.0,2777.0,2268.0,10941953.0,
1597.0,4036.0,2842.0,2269.0,10941957.0,
1597.0,4036.0,2902.0,2270.0,10941961.0,
1598.0,4036.0,2955.0,2272.0,10941965.0,
1599.0,4038.0,3006.0,2272.0,10941969.0,
1599.0,4036.0,3049.0,2270.0,10941973.0,
1598.0,4038.0,3085.0,2268.0,10941976.0,
1599.0,4034.0,3114.0,2268.0,10941980.0,
1598.0,4036.0,3136.0,2270.0,10941984.0,
1598.0,4037.0,3155.0,2267.0,10941988.0,
1599.0,4037.0,3163.0,2264.0,10941992.0,
1598.0,4036.0,3171.0,2264.0,10941996.0,
1597.0,4037.0,3169.0,2261.0,10942000.0,
1597.0,4034.0,3162.0,2255.0,10942003.0,
1599.0,4036.0,3151.0,2252.0,10942007.0,
1599.0,4037.0,3131.0,2249.0,10942011.0,
1598.0,4035.0,3111.0,2245.0,10942015.0,
1596.0,4034.0,3084.0,2237.0,10942019.0,
1597.0,4037.0,3051.0,2233.0,10942023.0,
1597.0,4035.0,3024.0,2222.0,10942027.0,
1599.0,4035.0,2982.0,2212.0,10942031.0,
1599.0,4033.0,2942.0,2206.0,10942035.0,
1598.0,4035.0,2900.0,2196.0,10942039.0,
1596.0,4033.0,2857.0,2188.0,10942042.0,
1598.0,4034.0,2812.0,2182.0,10942046.0,
1600.0,4037.0,2759.0,2175.0,10942050.0,
1599.0,4036.0,2708.0,2167.0,10942054.0,
1597.0,4035.0,2660.0,2164.0,10942058.0,
1597.0,4035.0,2610.0,2159.0,10942062.0,
1597.0,4034.0,2554.0,2159.0,10942065.0,
1599.0,4035.0,2503.0,2156.0,10942069.0,
1598.0,4035.0,2448.0,2155.0,10942073.0,
1597.0,4037.0,2395.0,2153.0,10942077.0,
1596.0,4036.0,2341.0,2149.0,10942081.0,
1597.0,4036.0,2290.0,2150.0,10942085.0,
1599.0,4035.0,2236.0,2151.0,10942089.0,
1599.0,4035.0,2185.0,2152.0,10942093.0,
1598.0,4033.0,2138.0,2151.0,10942096.0,
1597.0,4037.0,2092.0,2155.0,10942100.0,
1597.0,4037.0,2052.0,2154.0,10942104.0,
1599.0,4036.0,2012.0,2153.0,10942108.0,
1599.0,4037.0,1975.0,2155.0,10942112.0,
1598.0,4035.0,1942.0,2156.0,10942116.0,
1597.0,4037.0,1911.0,2161.0,10942120.0,
1597.0,4035.0,1887.0,2164.0,10942124.0,
1598.0,4038.0,1864.0,2168.0,10942127.0,
1600.0,4035.0,1851.0,2170.0,10942131.0,
1598.0,4038.0,1836.0,2175.0,10942135.0,
1597.0,4034.0,1829.0,2177.0,10942139.0,
1598.0,4037.0,1827.0,2179.0,10942143.0,
1599.0,4034.0,1825.0,2182.0,10942147.0,
1599.0,4036.0,1824.0,2187.0,10942151.0,
1599.0,4036.0,1831.0,2185.0,10942155.0,
1597.0,4037.0,1836.0,2187.0,10942158.0,
1597.0,4035.0,1843.0,2183.0,10942162.0,
1598.0,4037.0,1856.0,2186.0,10942166.0,
1599.0,4036.0,1865.0,2184.0,10942170.0,
1599.0,4034.0,1877.0,2183.0,10942174.0,
1597.0,4036.0,1889.0,2181.0,10942178.0,
1596.0,4033.0,1903.0,2181.0,10942182.0,
1599.0,4035.0,1917.0,2184.0,10942186.0,
1599.0,4036.0,1936.0,2183.0,10942190.0,
1599.0,4037.0,1950.0,2184.0,10942193.0,
1596.0,4035.0,1962.0,2183.0,10942197.0,
1597.0,4036.0,1977.0,2182.0,10942201.0,
1597.0,4036.0,1991.0,2181.0,10942205.0,
1598.0,4035.0,2004.0,2175.0,10942209.0,
1597.0,4036.0,2017.0,2172.0,10942213.0,
1598.0,4034.0,2030.0,2169.0,10942217.0,
1596.0,4039.0,2043.0,2168.0,10942221.0,
1598.0,4035.0,2053.0,2166.0,10942224.0,
1598.0,4035.0,2062.0,2162.0,10942228.0,
1599.0,4036.0,2071.0,2160.0,10942232.0,
1596.0,4035.0,2080.0,2156.0,10942236.0,
1595.0,4034.0,2083.0,2147.0,10942240.0,
1597.0,4034.0,2085.0,2138.0,10942244.0,
1598.0,4037.0,2087.0,2133.0,10942248.0,
1598.0,4034.0,2088.0,2124.0,10942251.0,
1597.0,4036.0,2085.0,2117.0,10942255.0,
1595.0,4036.0,2081.0,2112.0,10942259.0,
1597.0,4037.0,2079.0,2107.0,10942263.0,
1598.0,4035.0,2070.0,2096.0,10942267.0,
1598.0,4036.0,2064.0,2094.0,10942271.0,
1597.0,4037.0,2057.0,2085.0,10942275.0,
1596.0,4037.0,2047.0,2075.0,10942278.0,
1591.0,4033.0,2039.0,2068.0,10942282.0,
1599.0,4037.0,2026.0,2067.0,10942286.0,
1599.0,4035.0,2015.0,2062.0,10942290.0,
1598.0,4037.0,2003.0,2062.0,10942294.0,
1597.0,4035.0,1990.0,2056.0,10942298.0,
1596.0,4037.0,1977.0,2054.0,10942302.0,
1597.0,4034.0,1961.0,2053.0,10942305.0,
1598.0,4036.0,1946.0,2050.0,10942309.0,
1598.0,4036.0,1927.0,2047.0,10942313.0,
1599.0,4037.0,1912.0,2047.0,10942317.0,
1596.0,4035.0,1894.0,2044.0,10942321.0,
1597.0,4035.0,1876.0,2046.0,10942325.0,
1598.0,4037.0,1859.0,2048.0,10942329.0,
1599.0,4035.0,1844.0,2045.0,10942333.0,
1597.0,4035.0,1827.0,2042.0,10942337.0,
1596.0,4035.0,1814.0,2041.0,10942340.0,
1598.0,4036.0,1797.0,2042.0,10942344.0,
1599.0,4035.0,1784.0,2039.0,10942348.0,
1598.0,4037.0,1771.0,2040.0,10942352.0,
1597.0,4035.0,1759.0,2039.0,10942356.0,
1598.0,4036.0,1746.0,2037.0,10942360.0,
1597.0,4033.0,1739.0,2035.0,10942364.0,
1599.0,4037.0,1727.0,2035.0,10942367.0,
1598.0,4034.0,1717.0,2034.0,10942371.0,
1597.0,4037.0,1712.0,2035.0,10942375.0,
1597.0,4036.0,1701.0,2035.0,10942379.0,
1596.0,4035.0,1697.0,2032.0,10942383.0,
1598.0,4036.0,1690.0,2032.0,10942387.0,
1599.0,4036.0,1684.0,2031.0,10942391.0,
1599.0,4036.0,1680.0,2031.0,10942395.0,
1597.0,4036.0,1678.0,2029.0,10942398.0,
1597.0,4034.0,1674.0,2027.0,10942402.0,
1598.0,4036.0,1667.0,2028.0,10942406.0,
1600.0,4034.0,1666.0,2023.0,10942410.0,
1598.0,4036.0,1661.0,2025.0,10942414.0,
1598.0,4034.0,1658.0,2025.0,10942418.0,
1597.0,4036.0,1655.0,2029.0,10942422.0,
1599.0,4035.0,1655.0,2030.0,10942425.0,
1599.0,4035.0,1656.0,2028.0,10942429.0,
1599.0,4037.0,1650.0,2031.0,10942433.0,
1598.0,4033.0,1648.0,2031.0,10942437.0,
1596.0,4037.0,1646.0,2030.0,10942441.0,
1599.0,4037.0,1647.0,2027.0,10942445.0,
1600.0,4036.0,1642.0,2030.0,10942449.0,
1599.0,4034.0,1643.0,2029.0,10942453.0,
1598.0,4036.0,1637.0,2030.0,10942457.0,
1597.0,4035.0,1638.0,2030.0,10942460.0,
1598.0,4036.0,1634.0,2030.0,10942464.0,
1599.0,4034.0,1631.0,2025.0,10942468.0,
1600.0,4034.0,1632.0,2024.0,10942472.0,
1598.0,4036.0,1630.0,2019.0,10942477.0,
1598.0,4036.0,1632.0,2019.0,10942481.0,
1598.0,4037.0,1631.0,2016.0,10942485.0,
1599.0,4034.0,1633.0,2011.0,10942489.0,
1599.0,4037.0,1633.0,2012.0,10942493.0,
1597.0,4033.0,1632.0,2011.0,10942497.0,
1597.0,4037.0,1629.0,2010.0,10942501.0,
1599.0,4036.0,1631.0,2010.0,10942504.0,
1601.0,4035.0,1635.0,2013.0,10942508.0,
1599.0,4038.0,1632.0,2013.0,10942512.0,
1598.0,4037.0,1635.0,2014.0,10942516.0,
1597.0,4033.0,1635.0,2019.0,10942520.0,
1599.0,4037.0,1638.0,2029.0,10942524.0,
1600.0,4034.0,1641.0,2033.0,10942528.0,
1599.0,4037.0,1645.0,2040.0,10942532.0,
1599.0,4035.0,1654.0,2048.0,10942535.0,
1598.0,4036.0,1664.0,2060.0,10942539.0,
1600.0,4035.0,1677.0,2065.0,10942543.0,
1599.0,4038.0,1693.0,2073.0,10942547.0,
1600.0,4034.0,1712.0,2084.0,10942551.0,
1600.0,4035.0,1736.0,2091.0,10942555.0,
1598.0,4036.0,1763.0,2101.0,10942559.0,
1598.0,4036.0,1794.0,2108.0,10942563.0,
1599.0,4037.0,1831.0,2117.0,10942566.0,
1599.0,4034.0,1872.0,2124.0,10942570.0,
1600.0,4036.0,1920.0,2133.0,10942574.0,
1598.0,4037.0,1970.0,2143.0,10942578.0,
1598.0,4036.0,2029.0,2147.0,10942582.0,
1598.0,4038.0,2091.0,2155.0,10942586.0,
1600.0,4035.0,2153.0,2163.0,10942590.0,
1600.0,4036.0,2227.0,2165.0,10942593.0,
1598.0,4034.0,2299.0,2178.0,10942597.0,
1597.0,4036.0,2371.0,2186.0,10942601.0,
1599.0,4034.0,2448.0,2190.0,10942605.0,
1600.0,4035.0,2524.0,2199.0,10942609.0,
1600.0,4034.0,2597.0,2208.0,10942613.0,
1598.0,4034.0,2669.0,2212.0,10942616.0,
1597.0,4034.0,2742.0,2219.0,10942620.0,
1600.0,4035.0,2814.0,2225.0,10942624.0,
1599.0,4038.0,2880.0,2238.0,10942628.0,
1600.0,4037.0,2943.0,2242.0,10942632.0,
1599.0,4033.0,2999.0,2247.0,10942636.0,
1598.0,4035.0,3055.0,2253.0,10942640.0,
1598.0,4034.0,3103.0,2259.0,10942644.0,
1600.0,4035.0,3146.0,2260.0,10942647.0,
1601.0,4034.0,3182.0,2263.0,10942651.0,
1599.0,4034.0,3215.0,2265.0,10942655.0,
1598.0,4038.0,3238.0,2266.0,10942659.0,
1599.0,4037.0,3262.0,2269.0,10942663.0,
1599.0,4037.0,3273.0,2267.0,10942667.0,
1601.0,4036.0,3283.0,2268.0,10942671.0,
1600.0,4036.0,3284.0,2262.0,10942675.0,
1598.0,4037.0,3278.0,2259.0,10942679.0,
1599.0,4036.0,3270.0,2255.0,10942682.0,
1600.0,4037.0,3257.0,2254.0,10942686.0,
1600.0,4036.0,3236.0,2246.0,10942690.0,
1600.0,4038.0,3209.0,2240.0,10942694.0,
1599.0,4035.0,3179.0,2236.0,10942698.0,
1599.0,4034.0,3144.0,2230.0,10942702.0,
1600.0,4034.0,3111.0,2224.0,10942706.0,
1600.0,4033.0,3059.0,2217.0,10942711.0,
1599.0,4036.0,3017.0,2213.0,10942715.0,
1599.0,4035.0,2972.0,2206.0,10942718.0,
1598.0,4034.0,2923.0,2204.0,10942722.0,
1600.0,4035.0,2876.0,2206.0,10942726.0,
1600.0,4034.0,2827.0,2199.0,10942730.0,
1600.0,4037.0,2778.0,2195.0,10942734.0,
1599.0,4035.0,2724.0,2191.0,10942738.0,
1599.0,4035.0,2674.0,2191.0,10942742.0,
1601.0,4036.0,2621.0,2187.0,10942746.0,
1600.0,4034.0,2569.0,2183.0,10942750.0,
1600.0,4034.0,2516.0,2180.0,10942754.0,
1598.0,4035.0,2464.0,2179.0,10942757.0,
1599.0,4034.0,2413.0,2174.0,10942761.0,
1600.0,4036.0,2358.0,2169.0,10942765.0,
1600.0,4037.0,2310.0,2168.0,10942769.0,
1600.0,4036.0,2257.0,2162.0,10942773.0,
1600.0,4036.0,2208.0,2160.0,10942777.0,
1599.0,4040.0,2162.0,2152.0,10942781.0,
1599.0,4037.0,2115.0,2146.0,10942785.0,
1601.0,4038.0,2073.0,2145.0,10942788.0,
1600.0,4036.0,2035.0,2143.0,10942792.0,
1599.0,4034.0,1997.0,2140.0,10942796.0,
1600.0,4037.0,1967.0,2141.0,10942800.0,
1599.0,4035.0,1935.0,2138.0,10942804.0,
1600.0,4037.0,1910.0,2138.0,10942808.0,
1600.0,4033.0,1887.0,2134.0,10942812.0,
1600.0,4036.0,1867.0,2139.0,10942815.0,
1598.0,4035.0,1851.0,2133.0,10942819.0,
1600.0,4037.0,1839.0,2137.0,10942823.0,
1600.0,4035.0,1831.0,2139.0,10942827.0,
1601.0,4035.0,1826.0,2131.0,10942831.0,
1601.0,4036.0,1823.0,2136.0,10942835.0,
1600.0,4034.0,1825.0,2135.0,10942839.0,
1598.0,4037.0,1832.0,2134.0,10942842.0,
1601.0,4036.0,1838.0,2133.0,10942846.0,
1602.0,4037.0,1848.0,2135.0,10942850.0,
1602.0,4035.0,1860.0,2137.0,10942854.0,
1600.0,4034.0,1876.0,2137.0,10942858.0,
1599.0,4038.0,1891.0,2138.0,10942862.0,
1600.0,4035.0,1907.0,2138.0,10942866.0,
1601.0,4037.0,1922.0,2139.0,10942870.0,
1601.0,4033.0,1939.0,2137.0,10942873.0,
1600.0,4036.0,1959.0,2136.0,10942877.0,
1600.0,4035.0,1978.0,2137.0,10942881.0,
1602.0,4034.0,1991.0,2133.0,10942885.0,
1601.0,4036.0,2005.0,2134.0,10942889.0,
1601.0,4034.0,2022.0,2128.0,10942893.0,
1600.0,4037.0,2031.0,2124.0,10942897.0,
1599.0,4035.0,2043.0,2123.0,10942900.0,
1599.0,4033.0,2050.0,2120.0,10942904.0,
1602.0,4034.0,2058.0,2115.0,10942908.0,
1603.0,4036.0,2063.0,2115.0,10942912.0,
1602.0,4036.0,2067.0,2113.0,10942916.0,
1598.0,4034.0,2069.0,2108.0,10942920.0,
1599.0,4035.0,2066.0,2105.0,10942924.0,
1602.0,4037.0,2066.0,2104.0,10942928.0,
1602.0,4034.0,2061.0,2102.0,10942931.0,
1600.0,4035.0,2055.0,2098.0,10942935.0,
1600.0,4036.0,2046.0,2096.0,10942939.0,
1599.0,4035.0,2036.0,2094.0,10942943.0,
1601.0,4036.0,2025.0,2093.0,10942947.0,
1602.0,4034.0,2012.0,2088.0,10942951.0,
1601.0,4036.0,1999.0,2089.0,10942955.0,
1599.0,4035.0,1987.0,2085.0,10942958.0,
1599.0,4034.0,1973.0,2083.0,10942962.0,
1601.0,4037.0,1959.0,2081.0,10942966.0,
1601.0,4038.0,1945.0,2075.0,10942970.0,
1601.0,4035.0,1928.0,2075.0,10942974.0,
1599.0,4035.0,1916.0,2077.0,10942978.0,
1599.0,4034.0,1901.0,2074.0,10942982.0,
1600.0,4036.0,1884.0,2076.0,10942986.0,
1601.0,4034.0,1870.0,2070.0,10942989.0,
1601.0,4034.0,1848.0,2065.0,10942994.0,
1599.0,4037.0,1836.0,2065.0,10942998.0,
1600.0,4035.0,1820.0,2067.0,10943002.0,
1601.0,4036.0,1802.0,2069.0,10943005.0,
1601.0,4036.0,1788.0,2064.0,10943009.0,
1601.0,4037.0,1772.0,2067.0,10943013.0,
1600.0,4034.0,1754.0,2064.0,10943017.0,
1599.0,4036.0,1739.0,2064.0,10943021.0,
1600.0,4034.0,1724.0,2066.0,10943025.0,
1601.0,4037.0,1709.0,2067.0,10943028.0,
1601.0,4035.0,1695.0,2065.0,10943032.0,
1600.0,4037.0,1682.0,2064.0,10943036.0,
1600.0,4035.0,1667.0,2062.0,10943040.0,
1600.0,4035.0,1657.0,2063.0,10943044.0,
1600.0,4037.0,1645.0,2060.0,10943048.0,
1602.0,4034.0,1637.0,2054.0,10943052.0,
1600.0,4037.0,1624.0,2052.0,10943056.0,
1600.0,4037.0,1617.0,2047.0,10943059.0,
1600.0,4035.0,1604.0,2044.0,10943063.0,
1601.0,4035.0,1599.0,2040.0,10943067.0,
1601.0,4036.0,1591.0,2039.0,10943071.0,
1600.0,4036.0,1585.0,2033.0,10943075.0,
1598.0,4033.0,1576.0,2031.0,10943079.0,
1599.0,4038.0,1571.0,2027.0,10943083.0,
1601.0,4034.0,1567.0,2021.0,10943087.0,
1601.0,4036.0,1563.0,2021.0,10943090.0,
1600.0,4037.0,1557.0,2015.0,10943094.0,
1599.0,4034.0,1554.0,2012.0,10943098.0,
1599.0,4035.0,1551.0,2011.0,10943102.0,
1600.0,4037.0,1551.0,2008.0,10943106.0,
1601.0,4034.0,1549.0,2002.0,10943110.0,
1600.0,4036.0,1547.0,2001.0,10943114.0,
1594.0,4034.0,1546.0,1996.0,10943118.0,
1599.0,4036.0,1545.0,1992.0,10943122.0,
1600.0,4034.0,1543.0,1990.0,10943125.0,
1602.0,4035.0,1545.0,1990.0,10943129.0,
1600.0,4036.0,1542.0,1987.0,10943133.0,
1599.0,4035.0,1544.0,1986.0,10943137.0,
1598.0,4037.0,1545.0,1984.0,10943141.0,
1599.0,4034.0,1545.0,1985.0,10943145.0,
1600.0,4036.0,1542.0,1988.0,10943149.0,
1601.0,4036.0,1546.0,1991.0,10943152.0,
1599.0,4036.0,1543.0,1994.0,10943156.0,
1598.0,4038.0,1545.0,1999.0,10943160.0,
1599.0,4037.0,1544.0,1999.0,10943164.0,
1600.0,4035.0,1547.0,2004.0,10943168.0,
1601.0,4037.0,1551.0,2015.0,10943172.0,
1599.0,4034.0,1553.0,2020.0,10943176.0,
1598.0,4035.0,1557.0,2029.0,10943180.0,
1599.0,4034.0,1564.0,2036.0,10943184.0,
1600.0,4037.0,1572.0,2048.0,10943188.0,
1602.0,4034.0,1583.0,2054.0,10943191.0,
1598.0,4035.0,1594.0,2070.0,10943195.0,
1597.0,4034.0,1612.0,2080.0,10943199.0,
1599.0,4037.0,1630.0,2093.0,10943203.0,
1600.0,4035.0,1650.0,2104.0,10943207.0,
1601.0,4037.0,1676.0,2115.0,10943211.0,
1600.0,4033.0,1710.0,2124.0,10943215.0,
1600.0,4036.0,1740.0,2138.0,10943218.0,
1599.0,4033.0,1779.0,2151.0,10943222.0,
1600.0,4034.0,1824.0,2157.0,10943226.0,
1601.0,4037.0,1873.0,2175.0,10943230.0,
1600.0,4036.0,1923.0,2184.0,10943234.0,
1599.0,4035.0,1978.0,2191.0,10943238.0,
1598.0,4038.0,2035.0,2202.0,10943242.0,
1599.0,4035.0,2097.0,2206.0,10943245.0,
1601.0,4036.0,2159.0,2214.0,10943249.0,
1601.0,4034.0,2222.0,2216.0,10943253.0,
1600.0,4037.0,2283.0,2221.0,10943257.0,
1599.0,4037.0,2346.0,2225.0,10943261.0,
1600.0,4035.0,2410.0,2226.0,10943265.0,
1600.0,4033.0,2468.0,2225.0,10943269.0,
1601.0,4034.0,2524.0,2225.0,10943273.0,
1599.0,4035.0,2581.0,2225.0,10943277.0,
1599.0,4033.0,2632.0,2220.0,10943281.0,
1600.0,4034.0,2678.0,2225.0,10943284.0,
1602.0,4035.0,2722.0,2222.0,10943288.0,
1601.0,4035.0,2760.0,2220.0,10943292.0,
1600.0,4033.0,2791.0,2222.0,10943296.0,
1599.0,4034.0,2819.0,2218.0,10943300.0,
1599.0,4034.0,2842.0,2216.0,10943304.0,
1602.0,4035.0,2861.0,2213.0,10943308.0,
1602.0,4035.0,2877.0,2210.0,10943311.0,
1600.0,4035.0,2885.0,2208.0,10943315.0,
1600.0,4036.0,2889.0,2207.0,10943319.0,
1600.0,4036.0,2887.0,2204.0,10943323.0,
1600.0,4036.0,2882.0,2201.0,10943327.0,
1601.0,4037.0,2875.0,2203.0,10943331.0,
1601.0,4037.0,2860.0,2198.0,10943335.0,
1599.0,4035.0,2842.0,2196.0,10943338.0,
1599.0,4038.0,2820.0,2194.0,10943342.0,
1601.0,4034.0,2795.0,2193.0,10943346.0,
1602.0,4036.0,2766.0,2195.0,10943350.0,
1600.0,4034.0,2735.0,2191.0,10943354.0,
1599.0,4034.0,2702.0,2190.0,10943358.0,
1600.0,4035.0,2666.0,2188.0,10943362.0,
1601.0,4035.0,2627.0,2183.0,10943366.0,
1602.0,4033.0,2586.0,2181.0,10943370.0,
1601.0,4034.0,2542.0,2175.0,10943373.0,
1600.0,4036.0,2498.0,2176.0,10943377.0,
1599.0,4034.0,2452.0,2170.0,10943381.0,
1600.0,4035.0,2407.0,2164.0,10943385.0,
1601.0,4036.0,2362.0,2160.0,10943389.0,
1601.0,4034.0,2322.0,2159.0,10943393.0,
1601.0,4034.0,2275.0,2153.0,10943397.0,
1599.0,4035.0,2230.0,2155.0,10943400.0,
1600.0,4036.0,2186.0,2153.0,10943404.0,
1601.0,4036.0,2147.0,2153.0,10943408.0,
1601.0,4034.0,2104.0,2153.0,10943412.0,
1601.0,4033.0,2060.0,2155.0,10943416.0,
1600.0,4035.0,2018.0,2158.0,10943420.0,
1600.0,4036.0,1978.0,2160.0,10943423.0,
1603.0,4036.0,1938.0,2159.0,10943427.0,
1602.0,4034.0,1902.0,2157.0,10943431.0,
1601.0,4035.0,1871.0,2156.0,10943435.0,
1601.0,4036.0,1835.0,2160.0,10943439.0,
1600.0,4035.0,1802.0,2154.0,10943443.0,
1602.0,4036.0,1776.0,2152.0,10943447.0,
1603.0,4035.0,1750.0,2148.0,10943451.0,
1602.0,4036.0,1724.0,2146.0,10943455.0,
1601.0,4035.0,1704.0,2141.0,10943458.0,
1601.0,4035.0,1682.0,2140.0,10943462.0,
1600.0,4034.0,1667.0,2138.0,10943466.0,
1603.0,4036.0,1653.0,2135.0,10943470.0,
1602.0,4036.0,1639.0,2132.0,10943474.0,
1601.0,4034.0,1635.0,2126.0,10943478.0,
1601.0,4036.0,1626.0,2125.0,10943482.0,
1601.0,4037.0,1622.0,2117.0,10943488.0,
1603.0,4036.0,1625.0,2112.0,10943492.0,
1601.0,4035.0,1628.0,2110.0,10943496.0,
1600.0,4036.0,1632.0,2109.0,10943500.0,
1601.0,4034.0,1637.0,2108.0,10943504.0,
1602.0,4038.0,1642.0,2104.0,10943508.0,
1602.0,4034.0,1651.0,2100.0,10943512.0,
1601.0,4037.0,1663.0,2102.0,10943516.0,
1600.0,4034.0,1671.0,2102.0,10943519.0,
1601.0,4036.0,1683.0,2098.0,10943523.0,
1603.0,4034.0,1695.0,2095.0,10943527.0,
1602.0,4036.0,1708.0,2095.0,10943531.0,
1601.0,4037.0,1721.0,2090.0,10943535.0,
1601.0,4035.0,1736.0,2083.0,10943539.0,
1601.0,4037.0,1746.0,2085.0,10943543.0,
1602.0,4034.0,1758.0,2082.0,10943547.0,
1603.0,4037.0,1770.0,2081.0,10943550.0,
1602.0,4035.0,1780.0,2076.0,10943554.0,
1600.0,4037.0,1789.0,2079.0,10943558.0,
1602.0,4035.0,1799.0,2076.0,10943562.0,
1602.0,4035.0,1809.0,2073.0,10943566.0,
1602.0,4037.0,1820.0,2075.0,10943570.0,
1602.0,4035.0,1824.0,2073.0,10943574.0,
1601.0,4036.0,1831.0,2071.0,10943578.0,
1600.0,4035.0,1831.0,2067.0,10943581.0,
1602.0,4035.0,1837.0,2063.0,10943585.0,
1603.0,4035.0,1837.0,2060.0,10943589.0,
1602.0,4037.0,1841.0,2057.0,10943593.0,
1601.0,4035.0,1841.0,2055.0,10943597.0,
1601.0,4035.0,1842.0,2054.0,10943601.0,
1601.0,4035.0,1843.0,2052.0,10943605.0,
1602.0,4036.0,1841.0,2048.0,10943609.0,
1603.0,4036.0,1840.0,2044.0,10943612.0,
1601.0,4035.0,1830.0,2043.0,10943616.0,
1600.0,4035.0,1824.0,2041.0,10943620.0,
1601.0,4036.0,1816.0,2046.0,10943624.0,
1603.0,4035.0,1811.0,2041.0,10943628.0,
1603.0,4037.0,1799.0,2039.0,10943632.0,
1600.0,4035.0,1793.0,2042.0,10943636.0,
1601.0,4036.0,1785.0,2039.0,10943639.0,
1601.0,4034.0,1777.0,2034.0,10943643.0,
1599.0,4034.0,1767.0,2031.0,10943647.0,
1603.0,4036.0,1757.0,2031.0,10943651.0,
1602.0,4033.0,1748.0,2026.0,10943655.0,
1601.0,4036.0,1735.0,2025.0,10943659.0,
1600.0,4034.0,1725.0,2017.0,10943663.0,
1602.0,4035.0,1715.0,2018.0,10943666.0,
1603.0,4034.0,1701.0,2010.0,10943670.0,
1601.0,4038.0,1686.0,2010.0,10943674.0,
1601.0,4035.0,1675.0,2008.0,10943678.0,
1601.0,4035.0,1661.0,2001.0,10943682.0,
1601.0,4036.0,1651.0,2004.0,10943686.0,
1603.0,4039.0,1642.0,2000.0,10943690.0,
1603.0,4039.0,1632.0,2000.0,10943693.0,
1601.0,4037.0,1623.0,1996.0,10943697.0,
1601.0,4039.0,1612.0,1994.0,10943701.0,
1602.0,4036.0,1596.0,1987.0,10943705.0,
1602.0,4039.0,1585.0,1980.0,10943709.0,
1602.0,4036.0,1569.0,1973.0,10943713.0,
1601.0,4039.0,1558.0,1967.0,10943717.0,
1601.0,4036.0,1546.0,1961.0,10943720.0,
1601.0,4036.0,1535.0,1960.0,10943724.0,
1603.0,4036.0,1522.0,1955.0,10943728.0,
1603.0,4040.0,1514.0,1955.0,10943732.0,
1601.0,4037.0,1504.0,1951.0,10943736.0,
1599.0,4034.0,1493.0,1943.0,10943740.0,
1602.0,4037.0,1486.0,1940.0,10943744.0,
1602.0,4034.0,1480.0,1934.0,10943748.0,
1602.0,4036.0,1474.0,1933.0,10943752.0,
1603.0,4034.0,1471.0,1923.0,10943755.0,
1601.0,4036.0,1471.0,1922.0,10943759.0,
1601.0,4035.0,1471.0,1918.0,10943763.0,
1602.0,4037.0,1468.0,1920.0,10943767.0,
1603.0,4035.0,1469.0,1918.0,10943771.0,
1601.0,4039.0,1474.0,1922.0,10943775.0,
1601.0,4036.0,1475.0,1924.0,10943779.0,
1601.0,4038.0,1476.0,1928.0,10943782.0,
1602.0,4034.0,1479.0,1931.0,10943786.0,
1603.0,4037.0,1482.0,1940.0,10943790.0,
1602.0,4038.0,1486.0,1946.0,10943794.0,
1600.0,4034.0,1491.0,1953.0,10943798.0,
1601.0,4038.0,1496.0,1965.0,10943802.0,
1603.0,4035.0,1501.0,1976.0,10943806.0,
1603.0,4036.0,1504.0,1985.0,10943809.0,
1602.0,4034.0,1513.0,1995.0,10943814.0,
1601.0,4036.0,1521.0,2009.0,10943817.0,
1600.0,4038.0,1530.0,2025.0,10943821.0,
1601.0,4038.0,1543.0,2037.0,10943825.0,
1602.0,4037.0,1555.0,2055.0,10943829.0,
1603.0,4034.0,1572.0,2069.0,10943833.0,
1601.0,4036.0,1588.0,2089.0,10943837.0,
1600.0,4037.0,1610.0,2107.0,10943841.0,
1601.0,4036.0,1631.0,2121.0,10943845.0,
1603.0,4036.0,1658.0,2139.0,10943849.0,
1603.0,4036.0,1684.0,2152.0,10943852.0,
1602.0,4034.0,1715.0,2164.0,10943856.0,
1601.0,4034.0,1752.0,2180.0,10943861.0,
1601.0,4036.0,1786.0,2195.0,10943865.0,
1603.0,4035.0,1826.0,2205.0,10943868.0,
1603.0,4034.0,1865.0,2214.0,10943872.0,
1601.0,4038.0,1908.0,2228.0,10943876.0,
1601.0,4036.0,1947.0,2234.0,10943880.0,
1601.0,4034.0,1988.0,2241.0,10943884.0,
1603.0,4039.0,2026.0,2250.0,10943888.0,
1602.0,4035.0,2066.0,2257.0,10943892.0,
1602.0,4034.0,2104.0,2262.0,10943896.0,
1601.0,4034.0,2144.0,2271.0,10943900.0,
1603.0,4036.0,2177.0,2276.0,10943903.0,
1602.0,4034.0,2214.0,2280.0,10943907.0,
1603.0,4034.0,2246.0,2281.0,10943911.0,
1603.0,4035.0,2280.0,2284.0,10943916.0,
1601.0,4035.0,2304.0,2287.0,10943920.0,
1601.0,4036.0,2329.0,2285.0,10943923.0,
1603.0,4034.0,2349.0,2288.0,10943928.0,
1603.0,4035.0,2366.0,2284.0,10943932.0,
1601.0,4035.0,2376.0,2284.0,10943936.0,
1601.0,4035.0,2386.0,2280.0,10943939.0,
1601.0,4036.0,2387.0,2274.0,10943943.0,
1603.0,4034.0,2391.0,2273.0,10943947.0,
1602.0,4037.0,2388.0,2271.0,10943951.0,
1602.0,4037.0,2382.0,2269.0,10943955.0,
1601.0,4038.0,2373.0,2261.0,10943959.0,
1601.0,4039.0,2363.0,2265.0,10943963.0,
1603.0,4036.0,2350.0,2259.0,10943967.0,
1603.0,4037.0,2335.0,2253.0,10943971.0,
1602.0,4037.0,2317.0,2251.0,10943975.0,
1601.0,4039.0,2295.0,2244.0,10943978.0,
1601.0,4035.0,2272.0,2241.0,10943982.0,
1603.0,4036.0,2247.0,2240.0,10943986.0,
1604.0,4037.0,2222.0,2231.0,10943990.0,
1603.0,4033.0,2196.0,2227.0,10943994.0,
1601.0,4034.0,2168.0,2222.0,10943998.0,
1602.0,4035.0,2143.0,2214.0,10944002.0,
1603.0,4034.0,2115.0,2209.0,10944006.0,
1603.0,4036.0,2085.0,2202.0,10944009.0,
1603.0,4034.0,2061.0,2193.0,10944013.0,
1601.0,4036.0,2033.0,2186.0,10944017.0,
1601.0,4036.0,2005.0,2179.0,10944021.0,
1602.0,4033.0,1977.0,2170.0,10944025.0,
1604.0,4037.0,1948.0,2162.0,10944029.0,
1603.0,4035.0,1922.0,2152.0,10944033.0,
1602.0,4036.0,1893.0,2143.0,10944037.0,
1602.0,4035.0,1863.0,2136.0,10944041.0,
1602.0,4036.0,1840.0,2134.0,10944044.0,
1604.0,4035.0,1811.0,2125.0,10944048.0,
1603.0,4036.0,1787.0,2122.0,10944052.0,
1603.0,4034.0,1760.0,2116.0,10944056.0,
1601.0,4036.0,1735.0,2113.0,10944060.0,
1602.0,4034.0,1712.0,2105.0,10944064.0,
1603.0,4037.0,1693.0,2105.0,10944067.0,
1603.0,4035.0,1667.0,2101.0,10944071.0,
1602.0,4037.0,1650.0,2100.0,10944075.0,
1601.0,4035.0,1631.0,2098.0,10944079.0,
1601.0,4034.0,1613.0,2097.0,10944083.0,
1602.0,4037.0,1599.0,2100.0,10944087.0,
1603.0,4035.0,1581.0,2095.0,10944091.0,
1601.0,4038.0,1568.0,2099.0,10944095.0,
1600.0,4034.0,1557.0,2096.0,10944099.0,
1601.0,4037.0,1549.0,2097.0,10944102.0,
1603.0,4035.0,1542.0,2096.0,10944106.0,
1603.0,4035.0,1535.0,2096.0,10944110.0,
1603.0,4036.0,1535.0,2096.0,10944114.0,
1601.0,4037.0,1531.0,2097.0,10944118.0,
1601.0,4034.0,1533.0,2097.0,10944122.0,
1604.0,4036.0,1531.0,2096.0,10944126.0,
1604.0,4034.0,1534.0,2091.0,10944130.0,
1603.0,4036.0,1535.0,2097.0,10944133.0,
1602.0,4035.0,1537.0,2095.0,10944137.0,
1602.0,4036.0,1539.0,2096.0,10944141.0,
1603.0,4034.0,1543.0,2095.0,10944145.0,
1603.0,4035.0,1544.0,2095.0,10944149.0,
1603.0,4034.0,1548.0,2096.0,10944153.0,
1602.0,4037.0,1548.0,2094.0,10944157.0,
1601.0,4035.0,1554.0,2093.0,10944160.0,
1602.0,4034.0,1555.0,2092.0,10944164.0,
1603.0,4034.0,1558.0,2089.0,10944168.0,
1604.0,4037.0,1558.0,2089.0,10944172.0,
1602.0,4037.0,1560.0,2089.0,10944176.0,
1601.0,4035.0,1563.0,2085.0,10944180.0,
1602.0,4036.0,1563.0,2087.0,10944184.0,
1604.0,4033.0,1565.0,2080.0,10944187.0,
1603.0,4034.0,1563.0,2077.0,10944191.0,
1603.0,4036.0,1562.0,2078.0,10944195.0,
1601.0,4036.0,1558.0,2072.0,10944199.0,
1603.0,4034.0,1554.0,2067.0,10944203.0,
1603.0,4036.0,1553.0,2065.0,10944207.0,
1604.0,4034.0,1548.0,2058.0,10944211.0,
1603.0,4037.0,1545.0,2053.0,10944214.0,
1602.0,4036.0,1540.0,2050.0,10944218.0,
1602.0,4035.0,1536.0,2041.0,10944222.0,
1603.0,4034.0,1535.0,2036.0,10944226.0,
1604.0,4035.0,1530.0,2030.0,10944230.0,
1603.0,4037.0,1527.0,2031.0,10944234.0,
1602.0,4033.0,1521.0,2026.0,10944238.0,
1602.0,4033.0,1516.0,2024.0,10944241.0,
1603.0,4035.0,1513.0,2023.0,10944245.0,
1603.0,4037.0,1512.0,2019.0,10944249.0,
1604.0,4036.0,1509.0,2016.0,10944253.0,
1603.0,4035.0,1510.0,2015.0,10944257.0,
1602.0,4037.0,1508.0,2014.0,10944261.0,
1602.0,4036.0,1510.0,2009.0,10944265.0,
1604.0,4037.0,1510.0,2009.0,10944269.0,
1603.0,4035.0,1511.0,2008.0,10944272.0,
1601.0,4037.0,1508.0,2007.0,10944276.0,
1602.0,4035.0,1509.0,2007.0,10944280.0,
1602.0,4034.0,1511.0,2001.0,10944284.0,
1605.0,4035.0,1509.0,2000.0,10944288.0,
1604.0,4037.0,1509.0,1999.0,10944292.0,
1602.0,4037.0,1509.0,1994.0,10944296.0,
1602.0,4035.0,1509.0,1993.0,10944300.0,
1600.0,4037.0,1511.0,1991.0,10944304.0,
1603.0,4034.0,1515.0,1987.0,10944308.0,
1604.0,4037.0,1518.0,1984.0,10944312.0,
1603.0,4035.0,1521.0,1984.0,10944315.0,
1602.0,4033.0,1526.0,1981.0,10944319.0,
1602.0,4037.0,1527.0,1985.0,10944323.0,
1603.0,4035.0,1528.0,1986.0,10944327.0,
1604.0,4035.0,1531.0,1979.0,10944331.0,
1603.0,4037.0,1535.0,1983.0,10944335.0,
1602.0,4035.0,1537.0,1981.0,10944339.0,
1601.0,4036.0,1538.0,1981.0,10944342.0,
1602.0,4037.0,1540.0,1981.0,10944346.0,
1604.0,4036.0,1544.0,1979.0,10944350.0,
1603.0,4036.0,1547.0,1980.0,10944354.0,
1602.0,4035.0,1551.0,1974.0,10944358.0,
1601.0,4037.0,1556.0,1979.0,10944362.0,
1603.0,4034.0,1558.0,1977.0,10944366.0,
1603.0,4036.0,1562.0,1977.0,10944370.0,
1604.0,4036.0,1562.0,1980.0,10944373.0,
1602.0,4033.0,1566.0,1979.0,10944377.0,
1601.0,4035.0,1567.0,1983.0,10944381.0,
1603.0,4034.0,1569.0,1987.0,10944385.0,
1604.0,4036.0,1570.0,1988.0,10944389.0,
1603.0,4033.0,1572.0,1989.0,10944393.0,
1602.0,4037.0,1575.0,1992.0,10944397.0,
1602.0,4036.0,1575.0,1992.0,10944400.0,
1601.0,4036.0,1579.0,1998.0,10944404.0,
1603.0,4036.0,1578.0,2003.0,10944408.0,
1603.0,4037.0,1580.0,2010.0,10944412.0,
1603.0,4033.0,1579.0,2012.0,10944416.0,
1601.0,4037.0,1578.0,2019.0,10944420.0,
1602.0,4034.0,1577.0,2027.0,10944424.0,
1604.0,4039.0,1578.0,2042.0,10944428.0,
1604.0,4037.0,1579.0,2054.0,10944432.0,
1603.0,4039.0,1576.0,2068.0,10944435.0,
1602.0,4037.0,1578.0,2078.0,10944439.0,
1602.0,4040.0,1580.0,2092.0,10944443.0,
1603.0,4040.0,1583.0,2104.0,10944447.0,
1604.0,4037.0,1589.0,2115.0,10944451.0,
1603.0,4039.0,1592.0,2128.0,10944455.0,
1601.0,4038.0,1596.0,2134.0,10944459.0,
1602.0,4039.0,1606.0,2142.0,10944463.0,
1603.0,4036.0,1615.0,2148.0,10944466.0,
1603.0,4036.0,1628.0,2154.0,10944470.0,
1603.0,4035.0,1640.0,2159.0,10944474.0,
1602.0,4036.0,1656.0,2165.0,10944478.0,
1602.0,4038.0,1672.0,2173.0,10944482.0,
1603.0,4037.0,1692.0,2176.0,10944486.0,
1604.0,4037.0,1709.0,2180.0,10944490.0,
1604.0,4035.0,1731.0,2186.0,10944493.0,
1602.0,4036.0,1751.0,2192.0,10944497.0,
1602.0,4037.0,1780.0,2200.0,10944503.0,
1603.0,4035.0,1799.0,2205.0,10944507.0,
1604.0,4039.0,1819.0,2214.0,10944511.0,
1603.0,4037.0,1837.0,2217.0,10944515.0,
1602.0,4037.0,1852.0,2220.0,10944519.0,
1603.0,4035.0,1870.0,2223.0,10944523.0,
1604.0,4037.0,1882.0,2230.0,10944527.0,
1604.0,4035.0,1893.0,2229.0,10944531.0,
1603.0,4037.0,1904.0,2230.0,10944534.0,
1602.0,4034.0,1914.0,2227.0,10944538.0,
1601.0,4037.0,1917.0,2228.0,10944542.0,
1603.0,4037.0,1924.0,2229.0,10944546.0,
1603.0,4036.0,1927.0,2224.0,10944550.0,
1604.0,4037.0,1928.0,2224.0,10944554.0,
1602.0,4033.0,1928.0,2219.0,10944558.0,
1602.0,4037.0,1926.0,2218.0,10944561.0,
1603.0,4035.0,1926.0,2219.0,10944565.0,
1604.0,4037.0,1925.0,2217.0,10944569.0,
1604.0,4038.0,1921.0,2215.0,10944573.0,
1603.0,4036.0,1914.0,2214.0,10944577.0,
1602.0,4038.0,1907.0,2208.0,10944581.0,
1603.0,4035.0,1898.0,2203.0,10944585.0,
1604.0,4038.0,1889.0,2200.0,10944589.0,
1604.0,4035.0,1880.0,2191.0,10944593.0,
1603.0,4037.0,1868.0,2185.0,10944596.0,
1602.0,4034.0,1858.0,2175.0,10944600.0,
1603.0,4036.0,1847.0,2167.0,10944604.0,
1604.0,4036.0,1837.0,2160.0,10944608.0,
1604.0,4035.0,1827.0,2150.0,10944612.0,
1603.0,4036.0,1815.0,2141.0,10944616.0,
1602.0,4034.0,1808.0,2134.0,10944620.0,
1603.0,4036.0,1794.0,2127.0,10944623.0,
1604.0,4035.0,1785.0,2120.0,10944627.0,
1605.0,4037.0,1773.0,2116.0,10944631.0,
1603.0,4035.0,1763.0,2111.0,10944635.0,
1603.0,4038.0,1753.0,2108.0,10944639.0,
1602.0,4034.0,1741.0,2102.0,10944643.0,
1604.0,4037.0,1735.0,2101.0,10944647.0,
1607.0,4034.0,1727.0,2095.0,10944650.0,
1603.0,4035.0,1717.0,2093.0,10944654.0,
1602.0,4036.0,1706.0,2097.0,10944658.0,
1602.0,4036.0,1695.0,2092.0,10944662.0,
1603.0,4035.0,1687.0,2093.0,10944666.0,
1604.0,4037.0,1679.0,2094.0,10944670.0,
1604.0,4035.0,1670.0,2094.0,10944674.0,
1603.0,4036.0,1663.0,2092.0,10944678.0,
1602.0,4035.0,1659.0,2094.0,10944681.0,
1603.0,4034.0,1651.0,2096.0,10944685.0,
1604.0,4037.0,1643.0,2099.0,10944689.0,
1604.0,4036.0,1638.0,2098.0,10944693.0,
1603.0,4037.0,1630.0,2099.0,10944697.0,
1602.0,4037.0,1623.0,2099.0,10944701.0,
1603.0,4035.0,1619.0,2097.0,10944705.0,
1604.0,4037.0,1613.0,2095.0,10944709.0,
1604.0,4035.0,1608.0,2089.0,10944712.0,
1603.0,4038.0,1605.0,2086.0,10944716.0,
1602.0,4035.0,1602.0,2080.0,10944720.0,
1602.0,4036.0,1599.0,2076.0,10944724.0,
1604.0,4035.0,1600.0,2069.0,10944728.0,
1604.0,4036.0,1600.0,2067.0,10944732.0,
1603.0,4034.0,1603.0,2063.0,10944736.0,
1602.0,4037.0,1603.0,2063.0,10944740.0,
1603.0,4033.0,1605.0,2058.0,10944744.0,
1604.0,4036.0,1610.0,2059.0,10944747.0,
1604.0,4035.0,1611.0,2056.0,10944751.0,
1601.0,4037.0,1614.0,2060.0,10944755.0,
1602.0,4037.0,1618.0,2057.0,10944759.0,
1602.0,4036.0,1615.0,2055.0,10944763.0,
1604.0,4034.0,1625.0,2056.0,10944767.0,
1604.0,4036.0,1627.0,2056.0,10944771.0,
1603.0,4038.0,1630.0,2061.0,10944775.0,
1602.0,4034.0,1634.0,2061.0,10944779.0,
1602.0,4037.0,1639.0,2066.0,10944783.0,
1603.0,4035.0,1642.0,2065.0,10944787.0,
1604.0,4038.0,1644.0,2069.0,10944791.0,
1603.0,4036.0,1649.0,2067.0,10944794.0,
1602.0,4034.0,1652.0,2069.0,10944798.0,
1602.0,4035.0,1653.0,2068.0,10944802.0,
1603.0,4035.0,1657.0,2070.0,10944806.0,
1605.0,4034.0,1656.0,2071.0,10944810.0,
1604.0,4037.0,1660.0,2071.0,10944814.0,
1603.0,4035.0,1665.0,2070.0,10944818.0,
1603.0,4036.0,1661.0,2070.0,10944821.0,
1604.0,4035.0,1663.0,2067.0,10944825.0,
1603.0,4036.0,1664.0,2065.0,10944829.0,
1604.0,4036.0,1664.0,2064.0,10944833.0,
1603.0,4034.0,1669.0,2059.0,10944837.0,
1602.0,4037.0,1668.0,2058.0,10944841.0,
1603.0,4037.0,1670.0,2051.0,10944845.0,
1604.0,4038.0,1669.0,2047.0,10944849.0,
1605.0,4034.0,1671.0,2041.0,10944852.0,
1603.0,4035.0,1673.0,2038.0,10944856.0,
1602.0,4035.0,1675.0,2027.0,10944860.0,
1602.0,4033.0,1676.0,2022.0,10944864.0,
1603.0,4037.0,1677.0,2017.0,10944868.0,
1605.0,4034.0,1679.0,2007.0,10944872.0,
1603.0,4037.0,1678.0,2005.0,10944876.0,
1602.0,4035.0,1674.0,1994.0,10944880.0,
1604.0,4037.0,1674.0,1991.0,10944883.0,
1605.0,4038.0,1670.0,1985.0,10944887.0,
1604.0,4037.0,1668.0,1978.0,10944891.0,
1603.0,4036.0,1662.0,1970.0,10944895.0,
1602.0,4037.0,1661.0,1965.0,10944899.0,
1602.0,4035.0,1656.0,1957.0,10944903.0,
1603.0,4036.0,1651.0,1952.0,10944907.0,
1604.0,4034.0,1648.0,1948.0,10944911.0,
1603.0,4037.0,1645.0,1945.0,10944914.0,
1603.0,4034.0,1642.0,1940.0,10944918.0,
1603.0,4037.0,1639.0,1940.0,10944922.0,
1604.0,4037.0,1632.0,1938.0,10944926.0,
1605.0,4034.0,1622.0,1937.0,10944930.0,
1604.0,4037.0,1620.0,1934.0,10944934.0,
1602.0,4035.0,1618.0,1933.0,10944938.0,
1602.0,4036.0,1608.0,1933.0,10944941.0,
1603.0,4035.0,1607.0,1930.0,10944945.0,
1603.0,4035.0,1604.0,1930.0,10944949.0,
1602.0,4039.0,1603.0,1926.0,10944953.0,
1603.0,4035.0,1603.0,1923.0,10944957.0,
1603.0,4037.0,1601.0,1921.0,10944961.0,
1603.0,4034.0,1600.0,1916.0,10944965.0,
1604.0,4037.0,1597.0,1912.0,10944969.0,
1604.0,4035.0,1594.0,1910.0,10944973.0,
1602.0,4036.0,1592.0,1908.0,10944976.0,
1602.0,4035.0,1596.0,1903.0,10944980.0,
1603.0,4035.0,1594.0,1903.0,10944984.0,
1603.0,4035.0,1594.0,1897.0,10944988.0,
1603.0,4037.0,1592.0,1901.0,10944992.0,
1603.0,4036.0,1590.0,1901.0,10944996.0,
1602.0,4036.0,1591.0,1904.0,10945000.0,
1602.0,4035.0,1593.0,1899.0,10945004.0,
1604.0,4037.0,1590.0,1903.0,10945008.0,
1605.0,4034.0,1590.0,1901.0,10945011.0,
1603.0,4035.0,1591.0,1901.0,10945015.0,
1601.0,4037.0,1588.0,1906.0,10945019.0,
1602.0,4036.0,1591.0,1913.0,10945023.0,
1603.0,4035.0,1590.0,1916.0,10945027.0,
1604.0,4035.0,1590.0,1926.0,10945031.0,
1603.0,4035.0,1594.0,1931.0,10945035.0,
1601.0,4036.0,1593.0,1947.0,10945039.0,
1602.0,4035.0,1597.0,1960.0,10945042.0,
1603.0,4034.0,1604.0,1970.0,10945046.0,
1603.0,4036.0,1610.0,1982.0,10945050.0,
1603.0,4037.0,1617.0,1999.0,10945054.0,
1603.0,4035.0,1627.0,2010.0,10945058.0,
1602.0,4036.0,1635.0,2028.0,10945062.0,
1604.0,4034.0,1649.0,2040.0,10945066.0,
1604.0,4037.0,1660.0,2056.0,10945070.0,
1604.0,4034.0,1677.0,2071.0,10945073.0,
1603.0,4035.0,1693.0,2084.0,10945077.0,
1602.0,4037.0,1712.0,2097.0,10945081.0,
1603.0,4037.0,1730.0,2115.0,10945085.0,
1604.0,4034.0,1750.0,2124.0,10945089.0,
1603.0,4037.0,1769.0,2141.0,10945093.0,
1603.0,4035.0,1790.0,2154.0,10945097.0,
1602.0,4036.0,1807.0,2168.0,10945101.0,
1604.0,4036.0,1824.0,2180.0,10945105.0,
1605.0,4036.0,1839.0,2194.0,10945108.0,
1604.0,4038.0,1858.0,2207.0,10945113.0,
1603.0,4035.0,1869.0,2217.0,10945117.0,
1603.0,4033.0,1883.0,2230.0,10945121.0,
1604.0,4038.0,1895.0,2239.0,10945124.0,
1604.0,4037.0,1907.0,2248.0,10945128.0,
1605.0,4033.0,1916.0,2251.0,10945132.0,
1604.0,4036.0,1926.0,2258.0,10945136.0,
1602.0,4037.0,1936.0,2268.0,10945140.0,
1604.0,4036.0,1943.0,2269.0,10945144.0,
1605.0,4039.0,1954.0,2279.0,10945148.0,
1604.0,4035.0,1961.0,2278.0,10945152.0,
1604.0,4038.0,1965.0,2281.0,10945155.0,
1602.0,4038.0,1973.0,2283.0,10945159.0,
1603.0,4036.0,1977.0,2280.0,10945163.0,
1604.0,4037.0,1982.0,2279.0,10945167.0,
1604.0,4036.0,1988.0,2274.0,10945171.0,
1604.0,4035.0,1986.0,2274.0,10945175.0,
1602.0,4034.0,1987.0,2269.0,10945179.0,
1603.0,4039.0,1987.0,2267.0,10945183.0,
1604.0,4034.0,1984.0,2260.0,10945186.0,
1605.0,4036.0,1983.0,2253.0,10945190.0,
1604.0,4035.0,1983.0,2252.0,10945194.0,
1603.0,4035.0,1973.0,2247.0,10945198.0,
1603.0,4039.0,1968.0,2244.0,10945202.0,
1604.0,4035.0,1961.0,2239.0,10945206.0,
1604.0,4038.0,1954.0,2236.0,10945210.0,
1604.0,4035.0,1945.0,2229.0,10945213.0,
1603.0,4035.0,1933.0,2222.0,10945217.0,
1604.0,4036.0,1924.0,2217.0,10945221.0,
1604.0,4036.0,1913.0,2212.0,10945225.0,
1605.0,4034.0,1902.0,2203.0,10945229.0,
1605.0,4038.0,1888.0,2196.0,10945233.0,
1603.0,4036.0,1876.0,2188.0,10945237.0,
1603.0,4037.0,1866.0,2178.0,10945241.0,
1604.0,4035.0,1856.0,2167.0,10945244.0,
1605.0,4035.0,1848.0,2161.0,10945248.0,
1604.0,4037.0,1837.0,2153.0,10945252.0,
1605.0,4036.0,1826.0,2144.0,10945256.0,
1602.0,4035.0,1814.0,2132.0,10945260.0,
1603.0,4038.0,1805.0,2125.0,10945264.0,
1605.0,4035.0,1794.0,2117.0,10945268.0,
1605.0,4038.0,1786.0,2112.0,10945272.0,
1605.0,4035.0,1777.0,2105.0,10945275.0,
1603.0,4035.0,1770.0,2098.0,10945279.0,
1603.0,4037.0,1766.0,2097.0,10945283.0,
1605.0,4038.0,1758.0,2095.0,10945287.0,
1604.0,4035.0,1754.0,2089.0,10945291.0,
1604.0,4037.0,1747.0,2091.0,10945295.0,
1603.0,4036.0,1742.0,2087.0,10945299.0,
1603.0,4037.0,1737.0,2087.0,10945303.0,
1605.0,4035.0,1737.0,2088.0,10945306.0,
1605.0,4034.0,1734.0,2086.0,10945310.0,
1604.0,4038.0,1731.0,2090.0,10945314.0,
1603.0,4036.0,1728.0,2093.0,10945318.0,
1604.0,4035.0,1729.0,2091.0,10945322.0,
1604.0,4036.0,1727.0,2094.0,10945326.0,
1605.0,4035.0,1727.0,2093.0,10945330.0,
1604.0,4038.0,1727.0,2096.0,10945334.0,
1603.0,4035.0,1730.0,2098.0,10945337.0,
1603.0,4034.0,1733.0,2095.0,10945341.0,
1603.0,4036.0,1733.0,2099.0,10945345.0,
1605.0,4035.0,1737.0,2096.0,10945349.0,
1605.0,4036.0,1739.0,2097.0,10945353.0,
1603.0,4035.0,1743.0,2098.0,10945357.0,
1603.0,4038.0,1746.0,2100.0,10945361.0,
1603.0,4035.0,1750.0,2098.0,10945364.0,
1605.0,4035.0,1750.0,2096.0,10945368.0,
1605.0,4037.0,1752.0,2100.0,10945372.0,
1603.0,4036.0,1757.0,2096.0,10945376.0,
1604.0,4035.0,1754.0,2092.0,10945380.0,
1604.0,4037.0,1761.0,2092.0,10945384.0,
1605.0,4035.0,1761.0,2091.0,10945388.0,
1605.0,4037.0,1764.0,2091.0,10945392.0,
1604.0,4035.0,1769.0,2094.0,10945395.0,
1603.0,4034.0,1773.0,2095.0,10945399.0,
1603.0,4035.0,1774.0,2095.0,10945403.0,
1605.0,4036.0,1777.0,2095.0,10945407.0,
1605.0,4036.0,1778.0,2095.0,10945411.0,
1604.0,4037.0,1782.0,2093.0,10945415.0,
1603.0,4036.0,1787.0,2088.0,10945419.0,
1603.0,4036.0,1785.0,2086.0,10945423.0,
1604.0,4034.0,1785.0,2078.0,10945427.0,
1606.0,4036.0,1786.0,2074.0,10945431.0,
1605.0,4036.0,1785.0,2069.0,10945434.0,
1601.0,4037.0,1786.0,2069.0,10945438.0,
1603.0,4034.0,1785.0,2060.0,10945442.0,
1605.0,4037.0,1784.0,2057.0,10945446.0,
1605.0,4034.0,1784.0,2048.0,10945450.0,
1605.0,4037.0,1777.0,2042.0,10945454.0,
1604.0,4035.0,1777.0,2036.0,10945458.0,
1603.0,4038.0,1774.0,2026.0,10945461.0,
1604.0,4036.0,1775.0,2024.0,10945465.0,
1605.0,4035.0,1772.0,2019.0,10945469.0,
1604.0,4037.0,1771.0,2010.0,10945473.0,
1604.0,4035.0,1772.0,2001.0,10945477.0,
1603.0,4036.0,1770.0,1994.0,10945481.0,
1604.0,4037.0,1767.0,1987.0,10945485.0,
1605.0,4036.0,1764.0,1983.0,10945489.0,
1605.0,4035.0,1763.0,1974.0,10945493.0,
1603.0,4037.0,1759.0,1969.0,10945497.0,
1603.0,4034.0,1758.0,1964.0,10945500.0,
1604.0,4034.0,1756.0,1956.0,10945507.0,
1605.0,4037.0,1753.0,1956.0,10945511.0,
1605.0,4034.0,1755.0,1953.0,10945514.0,
1603.0,4035.0,1752.0,1953.0,10945518.0,
1604.0,4037.0,1751.0,1955.0,10945522.0,
1605.0,4038.0,1750.0,1953.0,10945526.0,
1605.0,4035.0,1746.0,1947.0,10945530.0,
1604.0,4036.0,1746.0,1948.0,10945534.0,
1603.0,4035.0,1748.0,1948.0,10945538.0,
1603.0,4038.0,1747.0,1946.0,10945542.0,
1605.0,4035.0,1748.0,1941.0,10945545.0,
1607.0,4035.0,1751.0,1939.0,10945549.0,
1605.0,4037.0,1754.0,1942.0,10945553.0,
1603.0,4037.0,1752.0,1939.0,10945557.0,
1602.0,4035.0,1751.0,1935.0,10945561.0,
1603.0,4036.0,1750.0,1933.0,10945565.0,
1605.0,4034.0,1751.0,1929.0,10945569.0,
1605.0,4037.0,1750.0,1929.0,10945573.0,
1604.0,4035.0,1752.0,1924.0,10945576.0,
1603.0,4038.0,1750.0,1919.0,10945580.0,
1605.0,4036.0,1752.0,1914.0,10945584.0,
1606.0,4036.0,1752.0,1909.0,10945588.0,
1606.0,4036.0,1752.0,1907.0,10945592.0,
1605.0,4035.0,1750.0,1902.0,10945596.0,
1604.0,4038.0,1752.0,1899.0,10945600.0,
1603.0,4035.0,1750.0,1895.0,10945603.0,
1605.0,4035.0,1749.0,1893.0,10945607.0,
1605.0,4035.0,1747.0,1895.0,10945611.0,
1604.0,4036.0,1748.0,1894.0,10945615.0,
1603.0,4035.0,1748.0,1897.0,10945619.0,
1603.0,4037.0,1745.0,1903.0,10945623.0,
1605.0,4035.0,1747.0,1907.0,10945627.0,
1606.0,4037.0,1743.0,1916.0,10945631.0,
1605.0,4035.0,1746.0,1922.0,10945634.0,
1603.0,4034.0,1751.0,1930.0,10945638.0,
1603.0,4036.0,1752.0,1940.0,10945642.0,
1604.0,4037.0,1756.0,1950.0,10945646.0,
1606.0,4034.0,1762.0,1956.0,10945650.0,
1605.0,4036.0,1769.0,1967.0,10945654.0,
1604.0,4034.0,1770.0,1972.0,10945658.0,
1604.0,4037.0,1777.0,1983.0,10945661.0,
1604.0,4037.0,1785.0,1991.0,10945665.0,
1606.0,4036.0,1797.0,2002.0,10945669.0,
1605.0,4037.0,1808.0,2010.0,10945673.0,
1604.0,4037.0,1820.0,2017.0,10945677.0,
1603.0,4037.0,1830.0,2021.0,10945681.0,
1605.0,4036.0,1846.0,2031.0,10945685.0,
1606.0,4035.0,1858.0,2037.0,10945689.0,
1606.0,4037.0,1871.0,2045.0,10945693.0,
1605.0,4034.0,1888.0,2050.0,10945697.0,
1604.0,4036.0,1905.0,2056.0,10945700.0,
1605.0,4034.0,1922.0,2060.0,10945704.0,
1607.0,4037.0,1939.0,2063.0,10945708.0,
1606.0,4035.0,1958.0,2063.0,10945712.0,
1605.0,4039.0,1980.0,2067.0,10945716.0,
1604.0,4037.0,1999.0,2070.0,10945720.0,
1605.0,4042.0,2016.0,2069.0,10945724.0,
1606.0,4038.0,2038.0,2063.0,10945728.0,
1607.0,4037.0,2048.0,2057.0,10945732.0,
1606.0,4037.0,2062.0,2051.0,10945735.0,
1604.0,4034.0,2074.0,2040.0,10945739.0,
1605.0,4034.0,2088.0,2036.0,10945743.0,
1606.0,4040.0,2099.0,2030.0,10945747.0,
1606.0,4038.0,2108.0,2020.0,10945751.0,
1607.0,4035.0,2115.0,2015.0,10945755.0,
1605.0,4036.0,2118.0,2008.0,10945759.0,
1606.0,4035.0,2117.0,1994.0,10945763.0,
1606.0,4037.0,2117.0,1991.0,10945767.0,
1607.0,4037.0,2113.0,1986.0,10945770.0,
1607.0,4038.0,2111.0,1984.0,10945774.0,
1605.0,4035.0,2103.0,1979.0,10945778.0,
1604.0,4037.0,2096.0,1978.0,10945782.0,
1606.0,4036.0,2088.0,1974.0,10945786.0,
1607.0,4036.0,2081.0,1968.0,10945790.0,
1607.0,4037.0,2072.0,1968.0,10945794.0,
1605.0,4034.0,2066.0,1964.0,10945798.0,
1604.0,4037.0,2061.0,1963.0,10945801.0,
1607.0,4035.0,2053.0,1961.0,10945805.0,
1607.0,4032.0,2043.0,1959.0,10945809.0,
1605.0,4036.0,2031.0,1964.0,10945813.0,
1605.0,4034.0,2023.0,1963.0,10945817.0,
1605.0,4037.0,2010.0,1967.0,10945821.0,
1606.0,4033.0,2000.0,1972.0,10945825.0,
1607.0,4036.0,1991.0,1975.0,10945829.0,
1606.0,4034.0,1978.0,1976.0,10945832.0,
1605.0,4034.0,1967.0,1980.0,10945836.0,
1606.0,4037.0,1959.0,1985.0,10945840.0,
1605.0,4036.0,1947.0,1989.0,10945844.0,
1606.0,4035.0,1935.0,1992.0,10945848.0,
1607.0,4037.0,1925.0,2003.0,10945852.0,
1605.0,4034.0,1914.0,2005.0,10945856.0,
1604.0,4036.0,1905.0,2012.0,10945860.0,
1605.0,4035.0,1892.0,2016.0,10945863.0,
1606.0,4035.0,1884.0,2018.0,10945867.0,
1607.0,4037.0,1870.0,2023.0,10945871.0,
1605.0,4034.0,1859.0,2025.0,10945875.0,
1604.0,4036.0,1845.0,2027.0,10945880.0,
1604.0,4036.0,1834.0,2029.0,10945885.0,
1606.0,4034.0,1823.0,2028.0,10945888.0,
1606.0,4037.0,1817.0,2029.0,10945892.0,
1606.0,4034.0,1808.0,2025.0,10945896.0,
1605.0,4037.0,1800.0,2024.0,10945900.0,
1605.0,4036.0,1795.0,2025.0,10945904.0,
1606.0,4035.0,1797.0,2021.0,10945908.0,
1607.0,4037.0,1794.0,2022.0,10945912.0,
1606.0,4035.0,1793.0,2019.0,10945916.0,
1605.0,4037.0,1793.0,2020.0,10945920.0,
1604.0,4035.0,1795.0,2013.0,10945924.0,
1607.0,4037.0,1792.0,2013.0,10945927.0,
1606.0,4035.0,1797.0,2005.0,10945931.0,
1606.0,4035.0,1799.0,2007.0,10945935.0,
1605.0,4037.0,1802.0,2007.0,10945939.0,
1605.0,4034.0,1806.0,2005.0,10945943.0,
1606.0,4036.0,1805.0,2009.0,10945947.0,
1607.0,4034.0,1810.0,2007.0,10945951.0,
1607.0,4038.0,1811.0,2009.0,10945954.0,
1604.0,4032.0,1814.0,2011.0,10945958.0,
1605.0,4037.0,1817.0,2014.0,10945962.0,
1607.0,4038.0,1819.0,2017.0,10945966.0,
1605.0,4034.0,1826.0,2014.0,10945970.0,
1607.0,4037.0,1830.0,2015.0,10945974.0,
1607.0,4035.0,1836.0,2010.0,10945978.0,
1604.0,4039.0,1842.0,2008.0,10945982.0,
1607.0,4036.0,1844.0,1996.0,10945986.0,
1607.0,4037.0,1852.0,1998.0,10945989.0,
1607.0,4034.0,1859.0,1986.0,10945993.0,
1606.0,4036.0,1862.0,1983.0,10945997.0,
1605.0,4035.0,1871.0,1975.0,10946001.0,
1606.0,4037.0,1878.0,1965.0,10946005.0,
1607.0,4035.0,1883.0,1957.0,10946009.0,
1607.0,4036.0,1890.0,1949.0,10946013.0,
1605.0,4034.0,1895.0,1943.0,10946016.0,
1604.0,4034.0,1901.0,1933.0,10946020.0,
1605.0,4036.0,1906.0,1927.0,10946024.0,
1607.0,4034.0,1912.0,1916.0,10946028.0,
1608.0,4037.0,1916.0,1913.0,10946032.0,
1606.0,4034.0,1921.0,1903.0,10946036.0,
1605.0,4037.0,1922.0,1898.0,10946040.0,
1605.0,4035.0,1928.0,1892.0,10946044.0,
1608.0,4036.0,1930.0,1890.0,10946047.0,
1607.0,4035.0,1933.0,1884.0,10946051.0,
1606.0,4036.0,1934.0,1884.0,10946055.0,
1604.0,4036.0,1933.0,1885.0,10946059.0,
1606.0,4035.0,1936.0,1887.0,10946063.0,
1606.0,4037.0,1936.0,1892.0,10946067.0,
1608.0,4034.0,1936.0,1896.0,10946071.0,
1606.0,4037.0,1937.0,1901.0,10946074.0,
1605.0,4035.0,1936.0,1911.0,10946078.0,
1605.0,4035.0,1935.0,1922.0,10946082.0,
1607.0,4034.0,1936.0,1931.0,10946086.0,
1607.0,4037.0,1934.0,1942.0,10946090.0,
1607.0,4034.0,1935.0,1953.0,10946094.0,
1605.0,4038.0,1935.0,1967.0,10946098.0,
1605.0,4033.0,1935.0,1972.0,10946102.0,
1606.0,4037.0,1940.0,1984.0,10946106.0,
1607.0,4034.0,1940.0,1989.0,10946109.0,
1608.0,4035.0,1934.0,2002.0,10946113.0,
1606.0,4037.0,1932.0,2011.0,10946117.0,
1604.0,4037.0,1928.0,2016.0,10946121.0,
1606.0,4036.0,1928.0,2021.0,10946125.0,
1607.0,4036.0,1923.0,2027.0,10946129.0,
1608.0,4034.0,1919.0,2029.0,10946133.0,
1605.0,4036.0,1918.0,2034.0,10946137.0,
1605.0,4035.0,1912.0,2034.0,10946141.0,
1605.0,4036.0,1908.0,2037.0,10946144.0,
1608.0,4033.0,1902.0,2036.0,10946148.0,
1606.0,4035.0,1895.0,2040.0,10946152.0,
1607.0,4037.0,1888.0,2040.0,10946156.0,
1606.0,4035.0,1881.0,2035.0,10946160.0,
1606.0,4037.0,1875.0,2034.0,10946164.0,
1607.0,4035.0,1868.0,2027.0,10946168.0,
1607.0,4036.0,1857.0,2024.0,10946172.0,
1607.0,4035.0,1853.0,2015.0,10946175.0,
1605.0,4035.0,1846.0,2007.0,10946179.0,
1605.0,4036.0,1836.0,2001.0,10946183.0,
1608.0,4036.0,1827.0,1989.0,10946187.0,
1607.0,4035.0,1823.0,1981.0,10946191.0,
1607.0,4037.0,1813.0,1976.0,10946195.0,
1606.0,4036.0,1810.0,1967.0,10946198.0,
1606.0,4035.0,1801.0,1960.0,10946202.0,
1606.0,4034.0,1793.0,1953.0,10946206.0,
1607.0,4036.0,1787.0,1947.0,10946210.0,
1606.0,4035.0,1779.0,1941.0,10946215.0,
1605.0,4036.0,1769.0,1938.0,10946218.0,
1606.0,4034.0,1769.0,1934.0,10946222.0,
1606.0,4036.0,1760.0,1935.0,10946226.0,
1608.0,4034.0,1755.0,1932.0,10946230.0,
1607.0,4037.0,1757.0,1937.0,10946234.0,
1605.0,4035.0,1758.0,1940.0,10946238.0,
1605.0,4036.0,1755.0,1946.0,10946242.0,
1606.0,4036.0,1758.0,1954.0,10946246.0,
1607.0,4037.0,1762.0,1961.0,10946250.0,
1606.0,4034.0,1767.0,1969.0,10946254.0,
1606.0,4035.0,1772.0,1980.0,10946257.0,
1604.0,4035.0,1783.0,1987.0,10946261.0,
1606.0,4036.0,1786.0,2002.0,10946265.0,
1607.0,4037.0,1796.0,2015.0,10946269.0,
1607.0,4037.0,1805.0,2027.0,10946273.0,
1606.0,4035.0,1818.0,2039.0,10946277.0,
1605.0,4033.0,1830.0,2053.0,10946281.0,
1605.0,4038.0,1844.0,2067.0,10946285.0,
1607.0,4035.0,1858.0,2079.0,10946289.0,
1608.0,4036.0,1872.0,2093.0,10946293.0,
1606.0,4034.0,1888.0,2106.0,10946296.0,
1604.0,4035.0,1904.0,2117.0,10946300.0,
1605.0,4034.0,1919.0,2130.0,10946304.0,
1607.0,4035.0,1937.0,2138.0,10946308.0,
1607.0,4036.0,1952.0,2149.0,10946312.0,
1606.0,4036.0,1972.0,2156.0,10946316.0,
1604.0,4036.0,1991.0,2167.0,10946320.0,
1606.0,4034.0,2009.0,2175.0,10946324.0,
1606.0,4037.0,2026.0,2181.0,10946327.0,
1607.0,4037.0,2039.0,2184.0,10946331.0,
1606.0,4037.0,2054.0,2194.0,10946335.0,
1605.0,4036.0,2072.0,2197.0,10946339.0,
1606.0,4036.0,2085.0,2205.0,10946343.0,
1606.0,4035.0,2100.0,2204.0,10946347.0,
1608.0,4033.0,2109.0,2205.0,10946351.0,
1606.0,4034.0,2120.0,2208.0,10946355.0,
1606.0,4034.0,2127.0,2209.0,10946359.0,
1605.0,4033.0,2135.0,2205.0,10946362.0,
1607.0,4035.0,2140.0,2204.0,10946366.0,
1609.0,4037.0,2144.0,2205.0,10946370.0,
1607.0,4036.0,2150.0,2201.0,10946374.0,
1606.0,4036.0,2154.0,2196.0,10946378.0,
1606.0,4037.0,2154.0,2189.0,10946382.0,
1608.0,4037.0,2159.0,2183.0,10946386.0,
1608.0,4036.0,2158.0,2177.0,10946389.0,
1608.0,4036.0,2159.0,2167.0,10946393.0,
1607.0,4035.0,2157.0,2158.0,10946397.0,
1607.0,4034.0,2154.0,2147.0,10946401.0,
1607.0,4034.0,2151.0,2137.0,10946405.0,
1609.0,4034.0,2145.0,2126.0,10946409.0,
1608.0,4035.0,2141.0,2113.0,10946412.0,
1607.0,4035.0,2136.0,2103.0,10946416.0,
1607.0,4036.0,2129.0,2088.0,10946420.0,
1607.0,4036.0,2120.0,2077.0,10946424.0,
1609.0,4034.0,2116.0,2063.0,10946428.0,
1610.0,4033.0,2112.0,2050.0,10946432.0,
1608.0,4033.0,2104.0,2037.0,10946436.0,
1607.0,4037.0,2098.0,2025.0,10946440.0,
1607.0,4036.0,2095.0,2005.0,10946443.0,
1610.0,4035.0,2088.0,1991.0,10946447.0,
1609.0,4037.0,2080.0,1977.0,10946451.0,
1609.0,4035.0,2077.0,1961.0,10946455.0,
1607.0,4034.0,2070.0,1948.0,10946459.0,
1608.0,4036.0,2063.0,1939.0,10946463.0,
1608.0,4034.0,2056.0,1929.0,10946467.0,
1609.0,4036.0,2052.0,1924.0,10946471.0,
1609.0,4034.0,2046.0,1920.0,10946474.0,
1609.0,4035.0,2042.0,1915.0,10946478.0,
1608.0,4037.0,2032.0,1917.0,10946482.0,
1608.0,4035.0,2027.0,1916.0,10946486.0,
1609.0,4039.0,2019.0,1920.0,10946490.0,
1609.0,4035.0,2011.0,1920.0,10946494.0,
1607.0,4037.0,2000.0,1927.0,10946498.0,
1608.0,4034.0,1992.0,1932.0,10946502.0,
1610.0,4035.0,1974.0,1950.0,10946508.0,
1613.0,4033.0,1967.0,1959.0,10946512.0,
1608.0,4036.0,1957.0,1972.0,10946516.0,
1607.0,4034.0,1951.0,1979.0,10946519.0,
1607.0,4034.0,1941.0,1987.0,10946523.0,
1609.0,4036.0,1933.0,1994.0,10946527.0,
1609.0,4037.0,1926.0,1996.0,10946531.0,
1608.0,4033.0,1921.0,1998.0,10946535.0,
1608.0,4036.0,1918.0,1997.0,10946539.0,
1607.0,4034.0,1916.0,1997.0,10946543.0,
1609.0,4037.0,1913.0,1997.0,10946547.0,
1609.0,4033.0,1915.0,1991.0,10946550.0,
1609.0,4034.0,1912.0,1986.0,10946554.0,
1607.0,4035.0,1916.0,1984.0,10946558.0,
1607.0,4034.0,1917.0,1980.0,10946562.0,
1609.0,4037.0,1919.0,1977.0,10946566.0,
1610.0,4034.0,1920.0,1968.0,10946570.0,
1609.0,4035.0,1919.0,1966.0,10946574.0,
1608.0,4034.0,1924.0,1963.0,10946577.0,
1607.0,4035.0,1924.0,1960.0,10946581.0,
1608.0,4036.0,1928.0,1953.0,10946585.0,
1609.0,4039.0,1931.0,1948.0,10946589.0,
1609.0,4035.0,1936.0,1948.0,10946593.0,
1607.0,4035.0,1940.0,1942.0,10946597.0,
1607.0,4038.0,1944.0,1937.0,10946601.0,
1607.0,4035.0,1949.0,1932.0,10946604.0,
1609.0,4034.0,1951.0,1932.0,10946608.0,
1608.0,4036.0,1955.0,1933.0,10946612.0,
1608.0,4034.0,1959.0,1932.0,10946616.0,
1607.0,4036.0,1958.0,1936.0,10946620.0,
1607.0,4034.0,1960.0,1936.0,10946624.0,
1609.0,4035.0,1961.0,1937.0,10946628.0,
1609.0,4034.0,1962.0,1937.0,10946631.0,
1607.0,4035.0,1967.0,1937.0,10946635.0,
1607.0,4033.0,1968.0,1933.0,10946639.0,
1607.0,4037.0,1970.0,1935.0,10946643.0,
1608.0,4037.0,1970.0,1935.0,10946647.0,
1609.0,4034.0,1971.0,1932.0,10946651.0,
1608.0,4035.0,1968.0,1939.0,10946655.0,
1607.0,4036.0,1968.0,1939.0,10946659.0,
1607.0,4036.0,1965.0,1943.0,10946663.0,
1608.0,4035.0,1966.0,1947.0,10946666.0,
1609.0,4034.0,1960.0,1950.0,10946670.0,
1608.0,4036.0,1957.0,1956.0,10946674.0,
1607.0,4037.0,1954.0,1959.0,10946678.0,
1607.0,4034.0,1950.0,1964.0,10946682.0,
1607.0,4036.0,1944.0,1968.0,10946686.0,
1609.0,4034.0,1944.0,1973.0,10946690.0,
1608.0,4037.0,1939.0,1976.0,10946693.0,
1607.0,4034.0,1937.0,1979.0,10946697.0,
1607.0,4035.0,1936.0,1985.0,10946701.0,
1608.0,4037.0,1931.0,1988.0,10946705.0,
1609.0,4034.0,1931.0,1989.0,10946709.0,
1608.0,4035.0,1927.0,1994.0,10946714.0,
1607.0,4037.0,1919.0,1998.0,10946718.0,
1606.0,4035.0,1918.0,1997.0,10946722.0,
1608.0,4036.0,1912.0,1999.0,10946726.0,
1609.0,4036.0,1908.0,1994.0,10946730.0,
1608.0,4038.0,1904.0,1994.0,10946733.0,
1607.0,4035.0,1900.0,1992.0,10946737.0,
1606.0,4037.0,1893.0,1991.0,10946741.0,
1607.0,4034.0,1892.0,1985.0,10946745.0,
1608.0,4036.0,1887.0,1987.0,10946749.0,
1609.0,4034.0,1885.0,1983.0,10946753.0,
1607.0,4037.0,1880.0,1980.0,10946756.0,
1606.0,4036.0,1882.0,1976.0,10946760.0,
1607.0,4032.0,1880.0,1972.0,10946764.0,
1608.0,4035.0,1881.0,1969.0,10946768.0,
1608.0,4036.0,1878.0,1964.0,10946772.0,
1608.0,4035.0,1878.0,1960.0,10946776.0,
1606.0,4034.0,1878.0,1953.0,10946780.0,
1607.0,4038.0,1881.0,1952.0,10946784.0,
1608.0,4034.0,1883.0,1948.0,10946788.0,
1608.0,4036.0,1882.0,1944.0,10946791.0,
1608.0,4035.0,1885.0,1941.0,10946795.0,
1607.0,4034.0,1885.0,1941.0,10946799.0,
1607.0,4040.0,1883.0,1938.0,10946803.0,
1608.0,4036.0,1884.0,1936.0,10946807.0,
1609.0,4036.0,1886.0,1936.0,10946811.0,
1608.0,4037.0,1884.0,1934.0,10946815.0,
1607.0,4034.0,1890.0,1934.0,10946819.0,
1607.0,4037.0,1889.0,1935.0,10946822.0,
1609.0,4034.0,1894.0,1933.0,10946826.0,
1609.0,4037.0,1890.0,1934.0,10946830.0,
1609.0,4037.0,1894.0,1938.0,10946834.0,
1608.0,4034.0,1895.0,1936.0,10946838.0,
1607.0,4035.0,1894.0,1941.0,10946842.0,
1609.0,4034.0,1894.0,1940.0,10946846.0,
1610.0,4036.0,1892.0,1941.0,10946850.0,
1609.0,4035.0,1892.0,1943.0,10946853.0,
1608.0,4035.0,1891.0,1940.0,10946857.0,
1607.0,4037.0,1890.0,1940.0,10946861.0,
1608.0,4037.0,1886.0,1937.0,10946865.0,
1609.0,4036.0,1885.0,1934.0,10946869.0,
1609.0,4035.0,1881.0,1930.0,10946873.0,
1608.0,4037.0,1878.0,1925.0,10946877.0,
1607.0,4034.0,1875.0,1922.0,10946881.0,
1609.0,4037.0,1873.0,1919.0,10946884.0,
1609.0,4035.0,1872.0,1918.0,10946888.0,
1610.0,4034.0,1869.0,1914.0,10946892.0,
1608.0,4036.0,1864.0,1913.0,10946896.0,
1607.0,4037.0,1861.0,1914.0,10946900.0,
1608.0,4035.0,1860.0,1906.0,10946904.0,
1608.0,4036.0,1858.0,1906.0,10946908.0,
1610.0,4035.0,1857.0,1901.0,10946911.0,
1609.0,4034.0,1857.0,1899.0,10946915.0,
1608.0,4033.0,1854.0,1897.0,10946919.0,
1608.0,4036.0,1851.0,1898.0,10946923.0,
1608.0,4036.0,1852.0,1898.0,10946927.0,
1611.0,4036.0,1853.0,1895.0,10946931.0,
1610.0,4038.0,1851.0,1898.0,10946935.0,
1608.0,4034.0,1853.0,1899.0,10946939.0,
1606.0,4034.0,1854.0,1904.0,10946942.0,
1608.0,4036.0,1852.0,1907.0,10946946.0,
1609.0,4034.0,1853.0,1914.0,10946950.0,
1610.0,4036.0,1852.0,1924.0,10946954.0,
1608.0,4034.0,1855.0,1930.0,10946958.0,
1608.0,4036.0,1860.0,1937.0,10946962.0,
1609.0,4034.0,1861.0,1946.0,10946966.0,
1610.0,4038.0,1865.0,1955.0,10946969.0,
1610.0,4034.0,1867.0,1963.0,10946973.0,
1608.0,4035.0,1869.0,1974.0,10946977.0,
1608.0,4035.0,1874.0,1983.0,10946981.0,
1608.0,4034.0,1879.0,1999.0,10946985.0,
1609.0,4036.0,1887.0,2010.0,10946989.0,
1609.0,4035.0,1896.0,2025.0,10946993.0,
1608.0,4037.0,1906.0,2037.0,10946997.0,
1606.0,4035.0,1917.0,2049.0,10947000.0,
1608.0,4035.0,1924.0,2059.0,10947004.0,
1610.0,4037.0,1937.0,2072.0,10947008.0,
1609.0,4036.0,1951.0,2079.0,10947012.0,
1609.0,4035.0,1966.0,2089.0,10947016.0,
1608.0,4036.0,1974.0,2094.0,10947020.0,
1607.0,4034.0,1994.0,2101.0,10947024.0,
1610.0,4033.0,2010.0,2107.0,10947027.0,
1610.0,4033.0,2029.0,2106.0,10947031.0,
1609.0,4034.0,2047.0,2112.0,10947035.0,
1608.0,4034.0,2065.0,2117.0,10947039.0,
1608.0,4037.0,2084.0,2119.0,10947043.0,
1610.0,4035.0,2103.0,2118.0,10947047.0,
1611.0,4036.0,2123.0,2119.0,10947051.0,
1610.0,4036.0,2140.0,2117.0,10947055.0,
1609.0,4037.0,2157.0,2118.0,10947058.0,
1608.0,4036.0,2173.0,2116.0,10947062.0,
1609.0,4036.0,2188.0,2117.0,10947066.0,
1610.0,4035.0,2203.0,2114.0,10947070.0,
1610.0,4034.0,2217.0,2111.0,10947074.0,
1608.0,4035.0,2231.0,2108.0,10947078.0,
1609.0,4034.0,2239.0,2109.0,10947081.0,
1608.0,4038.0,2249.0,2109.0,10947085.0,
1610.0,4037.0,2255.0,2111.0,10947089.0,
1610.0,4036.0,2264.0,2110.0,10947093.0,
1609.0,4035.0,2264.0,2106.0,10947097.0,
1608.0,4035.0,2267.0,2108.0,10947101.0,
1609.0,4034.0,2263.0,2106.0,10947105.0,
1611.0,4034.0,2264.0,2107.0,10947109.0,
1611.0,4035.0,2264.0,2108.0,10947112.0,
1609.0,4036.0,2258.0,2108.0,10947116.0,
1609.0,4036.0,2256.0,2105.0,10947120.0,
1608.0,4035.0,2251.0,2104.0,10947124.0,
1610.0,4036.0,2245.0,2101.0,10947128.0,
1611.0,4035.0,2240.0,2098.0,10947132.0,
1610.0,4035.0,2233.0,2096.0,10947136.0,
1609.0,4034.0,2225.0,2096.0,10947139.0,
1609.0,4036.0,2219.0,2091.0,10947143.0,
1610.0,4035.0,2211.0,2086.0,10947147.0,
1611.0,4036.0,2203.0,2076.0,10947151.0,
1610.0,4034.0,2194.0,2071.0,10947155.0,
1608.0,4035.0,2184.0,2063.0,10947159.0,
1609.0,4033.0,2177.0,2053.0,10947163.0,
1610.0,4034.0,2172.0,2049.0,10947167.0,
1611.0,4035.0,2162.0,2041.0,10947170.0,
1610.0,4037.0,2155.0,2033.0,10947174.0,
1608.0,4034.0,2150.0,2027.0,10947178.0,
1608.0,4036.0,2140.0,2019.0,10947182.0,
1609.0,4034.0,2135.0,2010.0,10947186.0,
1611.0,4036.0,2129.0,2004.0,10947190.0,
1610.0,4035.0,2124.0,1993.0,10947194.0,
1609.0,4035.0,2114.0,1987.0,10947197.0,
1608.0,4034.0,2108.0,1977.0,10947201.0,
1609.0,4034.0,2101.0,1969.0,10947205.0,
1611.0,4036.0,2095.0,1964.0,10947209.0,
1610.0,4035.0,2090.0,1955.0,10947213.0,
1609.0,4036.0,2084.0,1948.0,10947217.0,
1609.0,4034.0,2079.0,1937.0,10947221.0,
1610.0,4037.0,2074.0,1930.0,10947225.0,
1610.0,4035.0,2069.0,1922.0,10947228.0,
1614.0,4034.0,2067.0,1913.0,10947232.0,
1609.0,4034.0,2067.0,1910.0,10947236.0,
1608.0,4037.0,2066.0,1910.0,10947240.0,
1608.0,4038.0,2067.0,1907.0,10947244.0,
1610.0,4034.0,2072.0,1903.0,10947248.0,
1611.0,4037.0,2074.0,1906.0,10947252.0,
1610.0,4034.0,2081.0,1905.0,10947256.0,
1609.0,4036.0,2083.0,1906.0,10947259.0,
1609.0,4034.0,2089.0,1906.0,10947263.0,
1610.0,4037.0,2094.0,1910.0,10947267.0,
1611.0,4037.0,2098.0,1912.0,10947271.0,
1610.0,4034.0,2106.0,1914.0,10947275.0,
1608.0,4036.0,2109.0,1919.0,10947279.0,
1610.0,4035.0,2114.0,1920.0,10947283.0,
1610.0,4036.0,2119.0,1926.0,10947287.0,
1610.0,4035.0,2125.0,1925.0,10947290.0,
1611.0,4034.0,2128.0,1927.0,10947294.0,
1609.0,4034.0,2135.0,1933.0,10947298.0,
1609.0,4034.0,2142.0,1935.0,10947302.0,
1610.0,4036.0,2146.0,1940.0,10947306.0,
1610.0,4036.0,2152.0,1940.0,10947310.0,
1610.0,4037.0,2156.0,1945.0,10947314.0,
1609.0,4034.0,2163.0,1947.0,10947317.0,
1608.0,4037.0,2169.0,1950.0,10947321.0,
1610.0,4036.0,2173.0,1954.0,10947325.0,
1611.0,4033.0,2175.0,1958.0,10947329.0,
1611.0,4034.0,2178.0,1961.0,10947333.0,
1610.0,4036.0,2178.0,1965.0,10947337.0,
1609.0,4033.0,2178.0,1964.0,10947341.0,
1609.0,4035.0,2177.0,1968.0,10947345.0,
1611.0,4034.0,2175.0,1967.0,10947348.0,
1610.0,4037.0,2174.0,1972.0,10947352.0,
1610.0,4034.0,2169.0,1974.0,10947356.0,
1609.0,4035.0,2167.0,1975.0,10947360.0,
1609.0,4036.0,2161.0,1979.0,10947364.0,
1611.0,4035.0,2158.0,1977.0,10947368.0,
1611.0,4037.0,2155.0,1975.0,10947372.0,
1611.0,4034.0,2151.0,1977.0,10947376.0,
1609.0,4036.0,2147.0,1978.0,10947379.0,
1609.0,4035.0,2145.0,1973.0,10947383.0,
1610.0,4036.0,2141.0,1972.0,10947387.0,
1611.0,4035.0,2137.0,1964.0,10947391.0,
1610.0,4035.0,2134.0,1958.0,10947395.0,
1609.0,4037.0,2130.0,1956.0,10947399.0,
1609.0,4034.0,2125.0,1948.0,10947403.0,
1610.0,4035.0,2122.0,1945.0,10947407.0,
1610.0,4034.0,2116.0,1939.0,10947410.0,
1610.0,4034.0,2112.0,1934.0,10947414.0,
1608.0,4035.0,2107.0,1930.0,10947418.0,
1608.0,4037.0,2101.0,1928.0,10947422.0,
1609.0,4034.0,2097.0,1924.0,10947426.0,
1610.0,4037.0,2095.0,1925.0,10947430.0,
1608.0,4034.0,2090.0,1919.0,10947434.0,
1608.0,4036.0,2089.0,1916.0,10947438.0,
1607.0,4034.0,2086.0,1913.0,10947441.0,
1608.0,4034.0,2082.0,1910.0,10947445.0,
1609.0,4037.0,2078.0,1909.0,10947449.0,
1609.0,4037.0,2076.0,1909.0,10947453.0,
1608.0,4035.0,2075.0,1907.0,10947457.0,
1606.0,4037.0,2073.0,1908.0,10947461.0,
1607.0,4034.0,2072.0,1905.0,10947464.0,
1609.0,4034.0,2072.0,1903.0,10947468.0,
1608.0,4036.0,2070.0,1904.0,10947472.0,
1607.0,4036.0,2070.0,1899.0,10947476.0,
1606.0,4035.0,2072.0,1895.0,10947480.0,
1607.0,4035.0,2070.0,1895.0,10947484.0,
1608.0,4034.0,2069.0,1890.0,10947488.0,
1609.0,4036.0,2066.0,1891.0,10947492.0,
1607.0,4036.0,2066.0,1888.0,10947495.0,
1607.0,4034.0,2063.0,1886.0,10947499.0,
1607.0,4034.0,2058.0,1882.0,10947503.0,
1608.0,4036.0,2052.0,1885.0,10947507.0,
1609.0,4034.0,2045.0,1884.0,10947511.0,
1608.0,4037.0,2040.0,1888.0,10947515.0,
1609.0,4035.0,2033.0,1890.0,10947519.0,
1608.0,4035.0,2025.0,1896.0,10947525.0,
1610.0,4037.0,2016.0,1901.0,10947528.0,
1611.0,4035.0,2012.0,1902.0,10947532.0,
1610.0,4033.0,2007.0,1905.0,10947536.0,
1608.0,4034.0,2002.0,1905.0,10947540.0,
1610.0,4036.0,1993.0,1906.0,10947544.0,
1611.0,4033.0,1988.0,1907.0,10947548.0,
1611.0,4036.0,1984.0,1911.0,10947552.0,
1611.0,4034.0,1982.0,1913.0,10947555.0,
1610.0,4034.0,1979.0,1912.0,10947559.0,
1610.0,4037.0,1973.0,1915.0,10947563.0,
1611.0,4036.0,1968.0,1914.0,10947567.0,
1613.0,4034.0,1965.0,1912.0,10947571.0,
1613.0,4037.0,1961.0,1915.0,10947575.0,
1611.0,4034.0,1956.0,1911.0,10947579.0,
1611.0,4037.0,1960.0,1912.0,10947583.0,
1612.0,4035.0,1957.0,1910.0,10947586.0,
1614.0,4034.0,1956.0,1907.0,10947590.0,
1614.0,4037.0,1955.0,1908.0,10947594.0,
1611.0,4037.0,1954.0,1908.0,10947598.0,
1611.0,4034.0,1954.0,1905.0,10947602.0,
1613.0,4035.0,1953.0,1907.0,10947606.0,
1613.0,4034.0,1955.0,1905.0,10947610.0,
1614.0,4037.0,1953.0,1908.0,10947614.0,
1612.0,4035.0,1958.0,1908.0,10947617.0,
1611.0,4036.0,1958.0,1908.0,10947621.0,
1612.0,4036.0,1958.0,1909.0,10947625.0,
1612.0,4037.0,1962.0,1907.0,10947629.0,
1613.0,4035.0,1964.0,1908.0,10947633.0,
1612.0,4036.0,1964.0,1907.0,10947637.0,
1611.0,4035.0,1968.0,1903.0,10947641.0,
1611.0,4037.0,1967.0,1906.0,10947645.0,
1613.0,4034.0,1968.0,1905.0,10947648.0,
1614.0,4034.0,1971.0,1905.0,10947652.0,
1612.0,4037.0,1971.0,1904.0,10947656.0,
1610.0,4036.0,1972.0,1907.0,10947660.0,
1610.0,4036.0,1970.0,1906.0,10947664.0,
1612.0,4036.0,1970.0,1906.0,10947668.0,
1613.0,4036.0,1971.0,1906.0,10947672.0,
1609.0,4036.0,1974.0,1909.0,10947676.0,
1610.0,4035.0,1973.0,1906.0,10947680.0,
1611.0,4036.0,1973.0,1912.0,10947684.0,
1612.0,4034.0,1976.0,1915.0,10947687.0,
1613.0,4034.0,1976.0,1920.0,10947691.0,
1611.0,4037.0,1976.0,1932.0,10947695.0,
1610.0,4037.0,1975.0,1934.0,10947699.0,
1611.0,4035.0,1979.0,1939.0,10947703.0,
1612.0,4036.0,1980.0,1950.0,10947707.0,
1612.0,4034.0,1985.0,1954.0,10947711.0,
1612.0,4036.0,1984.0,1966.0,10947715.0,
1610.0,4035.0,1989.0,1970.0,10947718.0,
1610.0,4034.0,1991.0,1979.0,10947722.0,
1611.0,4036.0,2000.0,1985.0,10947726.0,
1613.0,4035.0,2004.0,1992.0,10947730.0,
1611.0,4034.0,2012.0,1996.0,10947734.0,
1611.0,4037.0,2023.0,2005.0,10947738.0,
1610.0,4035.0,2035.0,2011.0,10947742.0,
1611.0,4036.0,2046.0,2014.0,10947746.0,
1612.0,4034.0,2064.0,2016.0,10947749.0,
1611.0,4035.0,2084.0,2023.0,10947753.0,
1611.0,4035.0,2104.0,2032.0,10947757.0,
1610.0,4033.0,2123.0,2036.0,10947761.0,
1610.0,4035.0,2149.0,2042.0,10947765.0,
1612.0,4037.0,2172.0,2047.0,10947769.0,
1612.0,4034.0,2200.0,2050.0,10947773.0,
1611.0,4033.0,2229.0,2054.0,10947777.0,
1610.0,4035.0,2255.0,2058.0,10947781.0,
1611.0,4034.0,2283.0,2060.0,10947784.0,
1612.0,4036.0,2309.0,2064.0,10947788.0,
1612.0,4036.0,2335.0,2063.0,10947792.0,
1610.0,4037.0,2357.0,2062.0,10947796.0,
1610.0,4037.0,2380.0,2063.0,10947800.0,
1610.0,4037.0,2404.0,2063.0,10947804.0,
1611.0,4037.0,2428.0,2059.0,10947808.0,
1612.0,4037.0,2448.0,2059.0,10947812.0,
1610.0,4036.0,2467.0,2054.0,10947815.0,
1610.0,4034.0,2489.0,2050.0,10947819.0,
1610.0,4039.0,2502.0,2048.0,10947823.0,
1612.0,4034.0,2515.0,2043.0,10947827.0,
1612.0,4036.0,2525.0,2039.0,10947831.0,
1610.0,4034.0,2534.0,2032.0,10947835.0,
1609.0,4036.0,2541.0,2028.0,10947839.0,
1608.0,4035.0,2546.0,2023.0,10947842.0,
1609.0,4034.0,2549.0,2016.0,10947846.0,
1610.0,4036.0,2551.0,2013.0,10947850.0,
1609.0,4034.0,2552.0,2007.0,10947854.0,
1607.0,4034.0,2551.0,2003.0,10947858.0,
1607.0,4035.0,2551.0,1998.0,10947862.0,
1607.0,4034.0,2550.0,1992.0,10947866.0,
1608.0,4037.0,2546.0,1988.0,10947870.0,
1607.0,4035.0,2541.0,1985.0,10947873.0,
1606.0,4034.0,2536.0,1980.0,10947877.0,
1604.0,4035.0,2524.0,1973.0,10947881.0,
1605.0,4037.0,2517.0,1967.0,10947885.0,
1607.0,4034.0,2504.0,1959.0,10947889.0,
1606.0,4037.0,2492.0,1956.0,10947893.0,
1604.0,4034.0,2482.0,1947.0,10947897.0,
1603.0,4035.0,2464.0,1942.0,10947901.0,
1603.0,4034.0,2451.0,1934.0,10947905.0,
1605.0,4037.0,2435.0,1930.0,10947908.0,
1605.0,4034.0,2420.0,1923.0,10947912.0,
1604.0,4036.0,2404.0,1922.0,10947916.0,
1602.0,4037.0,2389.0,1915.0,10947920.0,
1602.0,4034.0,2373.0,1912.0,10947924.0,
1604.0,4035.0,2356.0,1910.0,10947928.0,
1604.0,4034.0,2342.0,1908.0,10947932.0,
1603.0,4035.0,2323.0,1906.0,10947935.0,
1603.0,4034.0,2308.0,1901.0,10947939.0,
1603.0,4034.0,2291.0,1899.0,10947943.0,
1604.0,4036.0,2273.0,1899.0,10947947.0,
1605.0,4035.0,2256.0,1894.0,10947951.0,
1604.0,4037.0,2242.0,1891.0,10947955.0,
1603.0,4034.0,2229.0,1890.0,10947959.0,
1602.0,4036.0,2215.0,1887.0,10947962.0,
1605.0,4036.0,2203.0,1885.0,10947966.0,
1606.0,4037.0,2192.0,1883.0,10947970.0,
1605.0,4037.0,2182.0,1881.0,10947974.0,
1604.0,4035.0,2173.0,1880.0,10947978.0,
1605.0,4035.0,2161.0,1880.0,10947982.0,
1604.0,4035.0,2152.0,1879.0,10947986.0,
1607.0,4036.0,2143.0,1882.0,10947990.0,
1606.0,4034.0,2137.0,1879.0,10947993.0,
1606.0,4035.0,2127.0,1875.0,10947997.0,
1606.0,4033.0,2120.0,1875.0,10948001.0,
1607.0,4034.0,2117.0,1877.0,10948005.0,
1608.0,4036.0,2112.0,1876.0,10948009.0,
1610.0,4034.0,2109.0,1879.0,10948013.0,
1608.0,4035.0,2106.0,1882.0,10948017.0,
1608.0,4035.0,2105.0,1882.0,10948020.0,
1609.0,4034.0,2104.0,1885.0,10948024.0,
1610.0,4037.0,2102.0,1891.0,10948028.0,
1611.0,4035.0,2100.0,1893.0,10948032.0,
1611.0,4036.0,2103.0,1894.0,10948036.0,
1611.0,4036.0,2104.0,1899.0,10948040.0,
