EDA,Resp,PPG Finger,PPG Ear,arduino_ts,event_code
1284.0,4015.0,2071.0,1949.0,12592400.0,
1285.0,4014.0,2072.0,1953.0,12592404.0,
1285.0,4016.0,2076.0,1955.0,12592408.0,
1285.0,4015.0,2075.0,1953.0,12592412.0,
1284.0,4017.0,2077.0,1956.0,12592416.0,
1284.0,4014.0,2079.0,1954.0,12592420.0,
1285.0,4017.0,2081.0,1960.0,12592424.0,
1287.0,4014.0,2084.0,1963.0,12592427.0,
1286.0,4017.0,2086.0,1967.0,12592431.0,
1284.0,4014.0,2093.0,1970.0,12592435.0,
1284.0,4018.0,2098.0,1974.0,12592439.0,
1284.0,4014.0,2097.0,1978.0,12592443.0,
1286.0,4018.0,2100.0,1982.0,12592447.0,
1285.0,4015.0,2104.0,1982.0,12592451.0,
1284.0,4016.0,2105.0,1984.0,12592454.0,
1283.0,4016.0,2107.0,1985.0,12592458.0,
1283.0,4015.0,2113.0,1988.0,12592462.0,
1284.0,4016.0,2116.0,1990.0,12592466.0,
1284.0,4014.0,2120.0,1988.0,12592470.0,
1282.0,4016.0,2124.0,1991.0,12592474.0,
1280.0,4015.0,2127.0,1991.0,12592477.0,
1281.0,4016.0,2129.0,1992.0,12592481.0,
1282.0,4017.0,2129.0,1991.0,12592485.0,
1283.0,4013.0,2128.0,1988.0,12592489.0,
1282.0,4016.0,2127.0,1988.0,12592493.0,
1281.0,4014.0,2126.0,1982.0,12592497.0,
1280.0,4017.0,2122.0,1986.0,12592500.0,
1282.0,4018.0,2115.0,1980.0,12592506.0,
1282.0,4014.0,2109.0,1974.0,12592509.0,
1282.0,4016.0,2100.0,1971.0,12592513.0,
1280.0,4014.0,2096.0,1967.0,12592517.0,
1278.0,4015.0,2087.0,1965.0,12592521.0,
1280.0,4016.0,2079.0,1962.0,12592525.0,
1281.0,4013.0,2071.0,1959.0,12592529.0,
1280.0,4015.0,2065.0,1955.0,12592533.0,
1279.0,4014.0,2059.0,1950.0,12592537.0,
1280.0,4016.0,2053.0,1946.0,12592541.0,
1280.0,4015.0,2051.0,1940.0,12592544.0,
1281.0,4018.0,2044.0,1938.0,12592548.0,
1280.0,4016.0,2040.0,1929.0,12592552.0,
1279.0,4017.0,2030.0,1924.0,12592556.0,
1278.0,4015.0,2029.0,1915.0,12592560.0,
1280.0,4016.0,2024.0,1908.0,12592564.0,
1282.0,4014.0,2023.0,1899.0,12592568.0,
1282.0,4016.0,2020.0,1894.0,12592571.0,
1280.0,4016.0,2016.0,1888.0,12592575.0,
1279.0,4014.0,2020.0,1883.0,12592579.0,
1281.0,4017.0,2023.0,1878.0,12592583.0,
1282.0,4016.0,2025.0,1872.0,12592587.0,
1283.0,4016.0,2031.0,1869.0,12592591.0,
1281.0,4013.0,2040.0,1862.0,12592595.0,
1281.0,4018.0,2053.0,1859.0,12592599.0,
1282.0,4015.0,2063.0,1854.0,12592603.0,
1284.0,4016.0,2078.0,1853.0,12592606.0,
1284.0,4015.0,2098.0,1848.0,12592610.0,
1284.0,4018.0,2116.0,1848.0,12592614.0,
1283.0,4018.0,2135.0,1844.0,12592618.0,
1285.0,4016.0,2155.0,1845.0,12592622.0,
1285.0,4015.0,2176.0,1841.0,12592626.0,
1287.0,4017.0,2194.0,1842.0,12592630.0,
1286.0,4014.0,2215.0,1841.0,12592634.0,
1285.0,4017.0,2237.0,1839.0,12592638.0,
1286.0,4016.0,2254.0,1836.0,12592642.0,
1288.0,4017.0,2273.0,1837.0,12592645.0,
1288.0,4015.0,2290.0,1832.0,12592649.0,
1289.0,4016.0,2307.0,1834.0,12592653.0,
1287.0,4015.0,2322.0,1835.0,12592657.0,
1288.0,4014.0,2338.0,1835.0,12592661.0,
1290.0,4017.0,2355.0,1842.0,12592665.0,
1291.0,4014.0,2366.0,1841.0,12592669.0,
1289.0,4017.0,2378.0,1840.0,12592673.0,
1289.0,4015.0,2386.0,1840.0,12592677.0,
1289.0,4017.0,2395.0,1841.0,12592681.0,
1290.0,4015.0,2404.0,1842.0,12592685.0,
1291.0,4017.0,2414.0,1843.0,12592689.0,
1291.0,4014.0,2420.0,1847.0,12592692.0,
1289.0,4014.0,2426.0,1849.0,12592696.0,
1289.0,4014.0,2434.0,1852.0,12592700.0,
1290.0,4013.0,2439.0,1855.0,12592704.0,
1290.0,4017.0,2447.0,1862.0,12592708.0,
1289.0,4016.0,2450.0,1867.0,12592712.0,
1288.0,4016.0,2457.0,1878.0,12592716.0,
1287.0,4013.0,2462.0,1880.0,12592719.0,
1287.0,4015.0,2466.0,1886.0,12592723.0,
1288.0,4014.0,2466.0,1896.0,12592727.0,
1288.0,4016.0,2468.0,1906.0,12592731.0,
1286.0,4015.0,2466.0,1917.0,12592735.0,
1285.0,4017.0,2467.0,1930.0,12592739.0,
1285.0,4017.0,2463.0,1946.0,12592743.0,
1285.0,4016.0,2459.0,1959.0,12592747.0,
1284.0,4017.0,2453.0,1973.0,12592751.0,
1283.0,4014.0,2443.0,1986.0,12592755.0,
1283.0,4015.0,2441.0,2003.0,12592759.0,
1283.0,4014.0,2434.0,2018.0,12592763.0,
1284.0,4017.0,2428.0,2035.0,12592767.0,
1283.0,4014.0,2423.0,2048.0,12592771.0,
1283.0,4015.0,2421.0,2063.0,12592775.0,
1279.0,4013.0,2421.0,2077.0,12592778.0,
1281.0,4014.0,2419.0,2091.0,12592782.0,
1282.0,4017.0,2419.0,2106.0,12592786.0,
1279.0,4015.0,2422.0,2116.0,12592790.0,
1281.0,4018.0,2421.0,2133.0,12592794.0,
1277.0,4016.0,2425.0,2144.0,12592798.0,
1281.0,4013.0,2434.0,2152.0,12592802.0,
1281.0,4014.0,2441.0,2160.0,12592806.0,
1283.0,4013.0,2449.0,2167.0,12592810.0,
1281.0,4016.0,2458.0,2174.0,12592814.0,
1280.0,4014.0,2466.0,2180.0,12592818.0,
1281.0,4015.0,2473.0,2185.0,12592821.0,
1281.0,4018.0,2480.0,2190.0,12592825.0,
1283.0,4017.0,2487.0,2195.0,12592829.0,
1282.0,4015.0,2493.0,2198.0,12592833.0,
1281.0,4014.0,2499.0,2199.0,12592837.0,
1282.0,4014.0,2502.0,2202.0,12592841.0,
1283.0,4015.0,2503.0,2206.0,12592845.0,
1285.0,4014.0,2502.0,2205.0,12592849.0,
1284.0,4014.0,2501.0,2205.0,12592853.0,
1283.0,4013.0,2496.0,2207.0,12592857.0,
1284.0,4013.0,2492.0,2207.0,12592860.0,
1286.0,4015.0,2485.0,2204.0,12592864.0,
1286.0,4015.0,2478.0,2208.0,12592868.0,
1286.0,4017.0,2470.0,2205.0,12592873.0,
1285.0,4017.0,2460.0,2205.0,12592877.0,
1286.0,4016.0,2452.0,2204.0,12592881.0,
1287.0,4017.0,2446.0,2206.0,12592885.0,
1287.0,4016.0,2441.0,2204.0,12592888.0,
1287.0,4014.0,2431.0,2204.0,12592892.0,
1286.0,4015.0,2420.0,2206.0,12592896.0,
1286.0,4017.0,2411.0,2206.0,12592900.0,
1287.0,4016.0,2409.0,2208.0,12592904.0,
1286.0,4017.0,2404.0,2213.0,12592908.0,
1287.0,4016.0,2396.0,2211.0,12592912.0,
1285.0,4016.0,2399.0,2212.0,12592915.0,
1285.0,4014.0,2396.0,2210.0,12592919.0,
1285.0,4016.0,2392.0,2211.0,12592923.0,
1285.0,4014.0,2393.0,2211.0,12592927.0,
1286.0,4017.0,2398.0,2210.0,12592932.0,
1283.0,4016.0,2399.0,2209.0,12592935.0,
1284.0,4017.0,2406.0,2209.0,12592940.0,
1284.0,4017.0,2409.0,2209.0,12592944.0,
1284.0,4017.0,2410.0,2205.0,12592948.0,
1284.0,4017.0,2414.0,2204.0,12592951.0,
1283.0,4015.0,2417.0,2199.0,12592955.0,
1282.0,4014.0,2418.0,2195.0,12592959.0,
1283.0,4016.0,2416.0,2197.0,12592963.0,
1284.0,4014.0,2418.0,2197.0,12592967.0,
1284.0,4016.0,2416.0,2194.0,12592971.0,
1283.0,4015.0,2414.0,2195.0,12592975.0,
1281.0,4014.0,2412.0,2191.0,12592979.0,
1282.0,4017.0,2405.0,2192.0,12592983.0,
1284.0,4014.0,2397.0,2186.0,12592986.0,
1283.0,4014.0,2391.0,2185.0,12592990.0,
1282.0,4016.0,2384.0,2182.0,12592994.0,
1282.0,4017.0,2375.0,2179.0,12592998.0,
1281.0,4015.0,2366.0,2174.0,12593002.0,
1283.0,4012.0,2360.0,2167.0,12593006.0,
1284.0,4015.0,2353.0,2160.0,12593010.0,
1282.0,4015.0,2345.0,2155.0,12593014.0,
1281.0,4014.0,2340.0,2151.0,12593018.0,
1282.0,4015.0,2336.0,2143.0,12593021.0,
1282.0,4017.0,2333.0,2139.0,12593025.0,
1282.0,4014.0,2328.0,2132.0,12593029.0,
1281.0,4015.0,2325.0,2126.0,12593033.0,
1280.0,4014.0,2314.0,2121.0,12593037.0,
1280.0,4014.0,2307.0,2114.0,12593041.0,
1282.0,4015.0,2299.0,2109.0,12593044.0,
1282.0,4014.0,2292.0,2104.0,12593048.0,
1281.0,4014.0,2285.0,2099.0,12593052.0,
1280.0,4015.0,2279.0,2091.0,12593057.0,
1279.0,4015.0,2271.0,2087.0,12593060.0,
1281.0,4015.0,2263.0,2083.0,12593064.0,
1281.0,4014.0,2254.0,2078.0,12593068.0,
1281.0,4017.0,2247.0,2074.0,12593072.0,
1279.0,4017.0,2242.0,2071.0,12593076.0,
1279.0,4014.0,2237.0,2064.0,12593080.0,
1280.0,4018.0,2228.0,2063.0,12593084.0,
1280.0,4017.0,2220.0,2055.0,12593088.0,
1281.0,4015.0,2217.0,2046.0,12593092.0,
1279.0,4015.0,2212.0,2045.0,12593096.0,
1279.0,4014.0,2208.0,2038.0,12593100.0,
1280.0,4016.0,2203.0,2037.0,12593104.0,
1281.0,4016.0,2197.0,2030.0,12593108.0,
1281.0,4017.0,2195.0,2028.0,12593112.0,
1279.0,4014.0,2189.0,2024.0,12593116.0,
1279.0,4015.0,2180.0,2017.0,12593120.0,
1280.0,4016.0,2178.0,2012.0,12593124.0,
1281.0,4016.0,2168.0,2009.0,12593127.0,
1282.0,4013.0,2164.0,2006.0,12593131.0,
1280.0,4016.0,2157.0,2002.0,12593135.0,
1280.0,4015.0,2150.0,1998.0,12593139.0,
1281.0,4017.0,2147.0,1996.0,12593143.0,
1281.0,4014.0,2138.0,1993.0,12593147.0,
1283.0,4016.0,2135.0,1991.0,12593151.0,
1281.0,4017.0,2130.0,1986.0,12593155.0,
1280.0,4015.0,2124.0,1980.0,12593159.0,
1281.0,4017.0,2117.0,1984.0,12593163.0,
1282.0,4014.0,2114.0,1980.0,12593167.0,
1282.0,4017.0,2109.0,1978.0,12593171.0,
1280.0,4014.0,2101.0,1980.0,12593174.0,
1281.0,4016.0,2093.0,1978.0,12593178.0,
1280.0,4015.0,2087.0,1978.0,12593182.0,
1282.0,4017.0,2075.0,1977.0,12593186.0,
1282.0,4014.0,2065.0,1979.0,12593190.0,
1281.0,4015.0,2055.0,1980.0,12593194.0,
1280.0,4014.0,2047.0,1980.0,12593198.0,
1281.0,4016.0,2036.0,1983.0,12593201.0,
1282.0,4017.0,2024.0,1982.0,12593205.0,
1282.0,4017.0,2009.0,1985.0,12593209.0,
1282.0,4015.0,2000.0,1982.0,12593213.0,
1282.0,4017.0,1985.0,1980.0,12593217.0,
1281.0,4015.0,1974.0,1977.0,12593221.0,
1282.0,4018.0,1960.0,1979.0,12593225.0,
1284.0,4015.0,1952.0,1975.0,12593229.0,
1284.0,4017.0,1944.0,1973.0,12593232.0,
1283.0,4015.0,1937.0,1972.0,12593236.0,
1284.0,4014.0,1929.0,1967.0,12593240.0,
1287.0,4014.0,1922.0,1965.0,12593245.0,
1288.0,4017.0,1920.0,1962.0,12593249.0,
1288.0,4014.0,1914.0,1957.0,12593253.0,
1286.0,4016.0,1912.0,1958.0,12593257.0,
1288.0,4014.0,1908.0,1955.0,12593261.0,
1288.0,4016.0,1909.0,1950.0,12593265.0,
1289.0,4014.0,1907.0,1944.0,12593269.0,
1289.0,4017.0,1906.0,1941.0,12593272.0,
1287.0,4014.0,1908.0,1935.0,12593276.0,
1287.0,4018.0,1906.0,1932.0,12593280.0,
1288.0,4014.0,1906.0,1928.0,12593284.0,
1289.0,4016.0,1908.0,1925.0,12593288.0,
1289.0,4013.0,1907.0,1921.0,12593292.0,
1287.0,4017.0,1905.0,1921.0,12593296.0,
1286.0,4015.0,1905.0,1916.0,12593299.0,
1287.0,4016.0,1903.0,1914.0,12593303.0,
1287.0,4016.0,1903.0,1910.0,12593307.0,
1287.0,4017.0,1901.0,1900.0,12593311.0,
1286.0,4016.0,1901.0,1900.0,12593315.0,
1285.0,4017.0,1897.0,1899.0,12593319.0,
1286.0,4014.0,1897.0,1896.0,12593323.0,
1287.0,4019.0,1894.0,1889.0,12593327.0,
1286.0,4015.0,1895.0,1883.0,12593331.0,
1285.0,4017.0,1895.0,1881.0,12593334.0,
1284.0,4015.0,1896.0,1873.0,12593338.0,
1284.0,4013.0,1897.0,1867.0,12593342.0,
1284.0,4014.0,1900.0,1863.0,12593346.0,
1285.0,4018.0,1899.0,1862.0,12593350.0,
1285.0,4013.0,1901.0,1860.0,12593354.0,
1281.0,4018.0,1904.0,1859.0,12593358.0,
1282.0,4014.0,1906.0,1855.0,12593362.0,
1283.0,4017.0,1911.0,1855.0,12593366.0,
1283.0,4016.0,1915.0,1851.0,12593370.0,
1282.0,4017.0,1919.0,1851.0,12593373.0,
1281.0,4015.0,1925.0,1848.0,12593377.0,
1280.0,4016.0,1931.0,1849.0,12593381.0,
1281.0,4016.0,1934.0,1848.0,12593385.0,
1281.0,4017.0,1940.0,1851.0,12593389.0,
1280.0,4014.0,1940.0,1847.0,12593393.0,
1279.0,4018.0,1941.0,1848.0,12593397.0,
1278.0,4013.0,1943.0,1845.0,12593401.0,
1279.0,4017.0,1944.0,1847.0,12593404.0,
1279.0,4014.0,1947.0,1848.0,12593408.0,
1280.0,4017.0,1942.0,1851.0,12593412.0,
1278.0,4017.0,1942.0,1852.0,12593416.0,
1277.0,4013.0,1935.0,1853.0,12593420.0,
1279.0,4014.0,1931.0,1859.0,12593424.0,
1280.0,4016.0,1921.0,1864.0,12593429.0,
1280.0,4016.0,1911.0,1873.0,12593433.0,
1279.0,4017.0,1902.0,1884.0,12593437.0,
1278.0,4014.0,1895.0,1893.0,12593441.0,
1280.0,4017.0,1886.0,1906.0,12593445.0,
1282.0,4014.0,1881.0,1920.0,12593449.0,
1282.0,4015.0,1872.0,1933.0,12593453.0,
1280.0,4014.0,1867.0,1946.0,12593457.0,
1281.0,4016.0,1861.0,1963.0,12593460.0,
1281.0,4013.0,1855.0,1976.0,12593464.0,
1284.0,4018.0,1850.0,1992.0,12593468.0,
1283.0,4016.0,1842.0,2011.0,12593472.0,
1282.0,4013.0,1837.0,2025.0,12593476.0,
1282.0,4017.0,1835.0,2041.0,12593480.0,
1283.0,4014.0,1831.0,2056.0,12593483.0,
1286.0,4016.0,1829.0,2073.0,12593487.0,
1284.0,4016.0,1827.0,2087.0,12593491.0,
1284.0,4016.0,1832.0,2102.0,12593495.0,
1283.0,4014.0,1837.0,2114.0,12593499.0,
1284.0,4018.0,1843.0,2125.0,12593503.0,
1285.0,4013.0,1852.0,2135.0,12593507.0,
1286.0,4017.0,1860.0,2147.0,12593511.0,
1285.0,4016.0,1868.0,2154.0,12593515.0,
1284.0,4016.0,1892.0,2167.0,12593521.0,
1284.0,4014.0,1905.0,2172.0,12593525.0,
1285.0,4017.0,1916.0,2177.0,12593529.0,
1285.0,4016.0,1933.0,2183.0,12593533.0,
1283.0,4016.0,1952.0,2190.0,12593536.0,
1283.0,4014.0,1969.0,2193.0,12593540.0,
1285.0,4016.0,1986.0,2200.0,12593544.0,
1285.0,4015.0,2007.0,2206.0,12593548.0,
1284.0,4017.0,2022.0,2214.0,12593552.0,
1282.0,4014.0,2042.0,2214.0,12593556.0,
1283.0,4017.0,2061.0,2220.0,12593560.0,
1283.0,4016.0,2077.0,2224.0,12593563.0,
1284.0,4017.0,2092.0,2228.0,12593567.0,
1284.0,4018.0,2108.0,2228.0,12593571.0,
1283.0,4013.0,2125.0,2230.0,12593575.0,
1282.0,4015.0,2138.0,2232.0,12593579.0,
1284.0,4014.0,2151.0,2233.0,12593583.0,
1283.0,4012.0,2161.0,2233.0,12593587.0,
1284.0,4015.0,2171.0,2232.0,12593591.0,
1282.0,4015.0,2181.0,2231.0,12593595.0,
1281.0,4016.0,2191.0,2229.0,12593598.0,
1282.0,4016.0,2199.0,2226.0,12593602.0,
1282.0,4016.0,2202.0,2224.0,12593606.0,
1285.0,4016.0,2209.0,2220.0,12593610.0,
1283.0,4016.0,2213.0,2216.0,12593614.0,
1281.0,4014.0,2214.0,2208.0,12593618.0,
1283.0,4016.0,2216.0,2202.0,12593622.0,
1283.0,4017.0,2210.0,2200.0,12593626.0,
1284.0,4017.0,2207.0,2191.0,12593630.0,
1283.0,4017.0,2203.0,2185.0,12593634.0,
1281.0,4018.0,2192.0,2178.0,12593637.0,
1282.0,4016.0,2182.0,2174.0,12593641.0,
1283.0,4014.0,2169.0,2161.0,12593645.0,
1284.0,4016.0,2157.0,2153.0,12593649.0,
1283.0,4016.0,2145.0,2141.0,12593653.0,
1281.0,4014.0,2133.0,2129.0,12593657.0,
1282.0,4014.0,2118.0,2120.0,12593661.0,
1282.0,4014.0,2107.0,2110.0,12593664.0,
1284.0,4015.0,2092.0,2102.0,12593668.0,
1283.0,4015.0,2079.0,2090.0,12593672.0,
1282.0,4014.0,2069.0,2081.0,12593676.0,
1281.0,4016.0,2056.0,2072.0,12593680.0,
1281.0,4017.0,2046.0,2066.0,12593684.0,
1282.0,4014.0,2032.0,2060.0,12593688.0,
1284.0,4017.0,2022.0,2053.0,12593692.0,
1282.0,4013.0,2017.0,2049.0,12593696.0,
1281.0,4017.0,2006.0,2048.0,12593700.0,
1281.0,4015.0,1995.0,2043.0,12593703.0,
1283.0,4017.0,1986.0,2037.0,12593707.0,
1282.0,4015.0,1978.0,2032.0,12593711.0,
1281.0,4018.0,1973.0,2031.0,12593715.0,
1281.0,4016.0,1965.0,2028.0,12593719.0,
1281.0,4014.0,1959.0,2024.0,12593723.0,
1281.0,4014.0,1954.0,2021.0,12593727.0,
1283.0,4017.0,1949.0,2016.0,12593731.0,
1282.0,4013.0,1946.0,2013.0,12593735.0,
1279.0,4016.0,1944.0,2011.0,12593739.0,
1280.0,4015.0,1942.0,2007.0,12593742.0,
1281.0,4016.0,1945.0,2005.0,12593747.0,
1281.0,4015.0,1943.0,2000.0,12593751.0,
1281.0,4015.0,1943.0,1998.0,12593754.0,
1277.0,4013.0,1943.0,1995.0,12593758.0,
1280.0,4016.0,1941.0,1994.0,12593762.0,
1281.0,4017.0,1939.0,1992.0,12593766.0,
1281.0,4016.0,1942.0,1989.0,12593770.0,
1281.0,4018.0,1945.0,1990.0,12593774.0,
1278.0,4015.0,1945.0,1992.0,12593778.0,
1279.0,4016.0,1949.0,1990.0,12593782.0,
1280.0,4015.0,1951.0,1987.0,12593786.0,
1281.0,4016.0,1951.0,1988.0,12593789.0,
1280.0,4014.0,1956.0,1986.0,12593793.0,
1279.0,4017.0,1957.0,1989.0,12593797.0,
1276.0,4014.0,1965.0,1987.0,12593801.0,
1279.0,4014.0,1967.0,1990.0,12593805.0,
1280.0,4016.0,1971.0,1988.0,12593809.0,
1279.0,4015.0,1975.0,1990.0,12593812.0,
1277.0,4015.0,1981.0,1988.0,12593816.0,
1278.0,4014.0,1984.0,1988.0,12593820.0,
1277.0,4012.0,1991.0,1988.0,12593824.0,
1279.0,4016.0,1997.0,1988.0,12593828.0,
1278.0,4016.0,2002.0,1987.0,12593832.0,
1276.0,4017.0,2007.0,1987.0,12593836.0,
1275.0,4015.0,2016.0,1985.0,12593840.0,
1276.0,4017.0,2019.0,1984.0,12593844.0,
1277.0,4014.0,2025.0,1977.0,12593848.0,
1277.0,4017.0,2030.0,1977.0,12593852.0,
1276.0,4014.0,2031.0,1975.0,12593855.0,
1274.0,4013.0,2033.0,1970.0,12593860.0,
1275.0,4017.0,2030.0,1972.0,12593863.0,
1275.0,4013.0,2030.0,1968.0,12593867.0,
1276.0,4016.0,2028.0,1966.0,12593871.0,
1275.0,4013.0,2030.0,1962.0,12593875.0,
1275.0,4016.0,2028.0,1960.0,12593879.0,
1274.0,4015.0,2028.0,1958.0,12593883.0,
1276.0,4016.0,2028.0,1957.0,12593887.0,
1277.0,4013.0,2025.0,1955.0,12593891.0,
1276.0,4016.0,2026.0,1958.0,12593894.0,
1274.0,4016.0,2024.0,1954.0,12593898.0,
1275.0,4013.0,2023.0,1952.0,12593902.0,
1275.0,4016.0,2023.0,1952.0,12593906.0,
1278.0,4014.0,2019.0,1951.0,12593910.0,
1277.0,4018.0,2014.0,1946.0,12593914.0,
1276.0,4015.0,2012.0,1944.0,12593918.0,
1275.0,4018.0,2004.0,1941.0,12593922.0,
1278.0,4014.0,1994.0,1941.0,12593925.0,
1279.0,4015.0,1990.0,1934.0,12593929.0,
1278.0,4013.0,1986.0,1930.0,12593933.0,
1278.0,4016.0,1981.0,1925.0,12593937.0,
1280.0,4013.0,1978.0,1920.0,12593941.0,
1279.0,4016.0,1979.0,1916.0,12593946.0,
1284.0,4015.0,1974.0,1911.0,12593950.0,
1281.0,4016.0,1973.0,1906.0,12593954.0,
1280.0,4015.0,1971.0,1903.0,12593958.0,
1281.0,4017.0,1968.0,1901.0,12593961.0,
1282.0,4013.0,1969.0,1896.0,12593965.0,
1284.0,4017.0,1968.0,1894.0,12593969.0,
1285.0,4016.0,1964.0,1895.0,12593973.0,
1283.0,4015.0,1959.0,1890.0,12593977.0,
1283.0,4016.0,1956.0,1890.0,12593981.0,
1285.0,4015.0,1948.0,1886.0,12593985.0,
1286.0,4017.0,1945.0,1888.0,12593988.0,
1286.0,4014.0,1942.0,1886.0,12593992.0,
1284.0,4020.0,1937.0,1880.0,12593996.0,
1286.0,4016.0,1928.0,1881.0,12594000.0,
1285.0,4016.0,1921.0,1883.0,12594004.0,
1284.0,4014.0,1910.0,1880.0,12594008.0,
1286.0,4017.0,1901.0,1878.0,12594012.0,
1284.0,4016.0,1891.0,1877.0,12594016.0,
1284.0,4017.0,1881.0,1878.0,12594020.0,
1284.0,4016.0,1872.0,1874.0,12594024.0,
1284.0,4013.0,1867.0,1871.0,12594028.0,
1284.0,4016.0,1865.0,1871.0,12594032.0,
1283.0,4015.0,1859.0,1869.0,12594036.0,
1282.0,4017.0,1859.0,1868.0,12594039.0,
1282.0,4014.0,1861.0,1864.0,12594043.0,
1283.0,4014.0,1860.0,1861.0,12594047.0,
1283.0,4014.0,1862.0,1858.0,12594051.0,
1282.0,4015.0,1866.0,1859.0,12594055.0,
1281.0,4015.0,1871.0,1857.0,12594059.0,
1281.0,4018.0,1877.0,1857.0,12594063.0,
1282.0,4014.0,1890.0,1856.0,12594067.0,
1281.0,4016.0,1899.0,1854.0,12594070.0,
1280.0,4014.0,1910.0,1852.0,12594074.0,
1278.0,4017.0,1921.0,1849.0,12594078.0,
1277.0,4016.0,1932.0,1846.0,12594082.0,
1277.0,4014.0,1943.0,1844.0,12594086.0,
1277.0,4016.0,1955.0,1844.0,12594090.0,
1277.0,4014.0,1962.0,1841.0,12594094.0,
1275.0,4016.0,1971.0,1840.0,12594098.0,
1273.0,4014.0,1974.0,1838.0,12594101.0,
1274.0,4013.0,1978.0,1837.0,12594105.0,
1276.0,4015.0,1980.0,1834.0,12594109.0,
1274.0,4017.0,1977.0,1837.0,12594113.0,
1273.0,4014.0,1982.0,1834.0,12594117.0,
1272.0,4015.0,1979.0,1836.0,12594121.0,
1273.0,4013.0,1976.0,1830.0,12594125.0,
1273.0,4016.0,1972.0,1833.0,12594128.0,
1273.0,4017.0,1965.0,1837.0,12594133.0,
1271.0,4013.0,1958.0,1841.0,12594137.0,
1272.0,4016.0,1949.0,1845.0,12594141.0,
1273.0,4015.0,1939.0,1848.0,12594145.0,
1274.0,4015.0,1925.0,1853.0,12594149.0,
1273.0,4015.0,1916.0,1864.0,12594152.0,
1272.0,4014.0,1903.0,1870.0,12594156.0,
1273.0,4016.0,1890.0,1880.0,12594160.0,
1273.0,4016.0,1878.0,1889.0,12594164.0,
1275.0,4015.0,1867.0,1897.0,12594168.0,
1274.0,4017.0,1855.0,1911.0,12594172.0,
1275.0,4015.0,1845.0,1924.0,12594176.0,
1273.0,4017.0,1834.0,1939.0,12594180.0,
1275.0,4015.0,1824.0,1952.0,12594183.0,
1276.0,4014.0,1821.0,1962.0,12594187.0,
1277.0,4017.0,1818.0,1977.0,12594191.0,
1276.0,4016.0,1811.0,1986.0,12594195.0,
1275.0,4014.0,1814.0,1998.0,12594199.0,
1276.0,4016.0,1815.0,2014.0,12594203.0,
1278.0,4013.0,1813.0,2023.0,12594207.0,
1278.0,4017.0,1818.0,2036.0,12594211.0,
1279.0,4014.0,1822.0,2047.0,12594214.0,
1279.0,4014.0,1825.0,2053.0,12594218.0,
1279.0,4016.0,1834.0,2068.0,12594222.0,
1282.0,4016.0,1841.0,2080.0,12594226.0,
1284.0,4017.0,1848.0,2084.0,12594230.0,
1284.0,4016.0,1857.0,2094.0,12594234.0,
1283.0,4015.0,1870.0,2101.0,12594238.0,
1286.0,4016.0,1881.0,2110.0,12594242.0,
1285.0,4015.0,1894.0,2116.0,12594246.0,
1288.0,4016.0,1908.0,2124.0,12594249.0,
1287.0,4014.0,1921.0,2131.0,12594253.0,
1285.0,4017.0,1934.0,2136.0,12594257.0,
1285.0,4014.0,1947.0,2139.0,12594261.0,
1284.0,4016.0,1964.0,2145.0,12594265.0,
1286.0,4014.0,1979.0,2152.0,12594269.0,
1285.0,4017.0,1995.0,2153.0,12594273.0,
1284.0,4013.0,2009.0,2156.0,12594276.0,
1283.0,4015.0,2022.0,2159.0,12594280.0,
1284.0,4016.0,2037.0,2165.0,12594284.0,
1285.0,4016.0,2051.0,2165.0,12594288.0,
1285.0,4017.0,2062.0,2167.0,12594292.0,
1284.0,4014.0,2073.0,2171.0,12594296.0,
1283.0,4017.0,2084.0,2173.0,12594300.0,
1282.0,4015.0,2094.0,2173.0,12594304.0,
1284.0,4014.0,2103.0,2171.0,12594308.0,
1284.0,4013.0,2113.0,2170.0,12594312.0,
1283.0,4013.0,2118.0,2171.0,12594316.0,
1281.0,4016.0,2126.0,2168.0,12594320.0,
1283.0,4013.0,2131.0,2165.0,12594324.0,
1284.0,4014.0,2137.0,2160.0,12594327.0,
1283.0,4014.0,2140.0,2157.0,12594331.0,
1283.0,4015.0,2141.0,2158.0,12594335.0,
1282.0,4018.0,2143.0,2152.0,12594339.0,
1282.0,4014.0,2145.0,2145.0,12594343.0,
1282.0,4016.0,2145.0,2144.0,12594347.0,
1284.0,4014.0,2145.0,2137.0,12594351.0,
1283.0,4014.0,2145.0,2136.0,12594355.0,
1281.0,4015.0,2142.0,2131.0,12594358.0,
1282.0,4014.0,2140.0,2124.0,12594362.0,
1283.0,4016.0,2139.0,2123.0,12594366.0,
1283.0,4017.0,2133.0,2118.0,12594370.0,
1283.0,4015.0,2130.0,2113.0,12594374.0,
1281.0,4018.0,2125.0,2107.0,12594378.0,
1282.0,4018.0,2118.0,2097.0,12594382.0,
1282.0,4016.0,2110.0,2090.0,12594386.0,
1283.0,4017.0,2107.0,2080.0,12594389.0,
1283.0,4013.0,2101.0,2074.0,12594393.0,
1281.0,4016.0,2096.0,2068.0,12594397.0,
1281.0,4016.0,2091.0,2057.0,12594401.0,
1283.0,4013.0,2086.0,2048.0,12594405.0,
1283.0,4013.0,2082.0,2042.0,12594409.0,
1283.0,4016.0,2077.0,2040.0,12594413.0,
1281.0,4014.0,2072.0,2035.0,12594417.0,
1282.0,4016.0,2066.0,2032.0,12594421.0,
1282.0,4015.0,2065.0,2028.0,12594425.0,
1283.0,4017.0,2060.0,2025.0,12594428.0,
1284.0,4014.0,2055.0,2024.0,12594432.0,
1281.0,4015.0,2052.0,2024.0,12594436.0,
1281.0,4016.0,2047.0,2023.0,12594440.0,
1282.0,4015.0,2043.0,2016.0,12594444.0,
1283.0,4016.0,2038.0,2015.0,12594448.0,
1283.0,4013.0,2034.0,2009.0,12594452.0,
1282.0,4018.0,2029.0,2008.0,12594455.0,
1282.0,4017.0,2024.0,2007.0,12594459.0,
1282.0,4015.0,2021.0,2006.0,12594463.0,
1284.0,4015.0,2015.0,2005.0,12594467.0,
1285.0,4016.0,2009.0,2007.0,12594471.0,
1284.0,4015.0,2002.0,2005.0,12594475.0,
1282.0,4017.0,1996.0,2006.0,12594479.0,
1283.0,4014.0,1989.0,2004.0,12594483.0,
1284.0,4015.0,1981.0,2002.0,12594486.0,
1286.0,4016.0,1974.0,2005.0,12594490.0,
1283.0,4014.0,1970.0,1999.0,12594494.0,
1283.0,4017.0,1964.0,2001.0,12594498.0,
1284.0,4016.0,1957.0,1996.0,12594502.0,
1284.0,4015.0,1951.0,1995.0,12594506.0,
1286.0,4014.0,1950.0,1992.0,12594510.0,
1284.0,4014.0,1948.0,1990.0,12594514.0,
1283.0,4016.0,1945.0,1992.0,12594518.0,
1283.0,4014.0,1946.0,1983.0,12594522.0,
1286.0,4017.0,1944.0,1987.0,12594526.0,
1285.0,4013.0,1946.0,1984.0,12594529.0,
1283.0,4015.0,1951.0,1978.0,12594537.0,
1284.0,4017.0,1956.0,1980.0,12594541.0,
1285.0,4014.0,1960.0,1978.0,12594545.0,
1286.0,4017.0,1961.0,1972.0,12594549.0,
1286.0,4016.0,1962.0,1971.0,12594553.0,
1285.0,4016.0,1962.0,1976.0,12594556.0,
1284.0,4014.0,1959.0,1970.0,12594560.0,
1284.0,4014.0,1958.0,1970.0,12594564.0,
1285.0,4016.0,1957.0,1969.0,12594568.0,
1285.0,4016.0,1955.0,1969.0,12594572.0,
1284.0,4015.0,1955.0,1963.0,12594576.0,
1284.0,4016.0,1955.0,1962.0,12594580.0,
1284.0,4015.0,1956.0,1957.0,12594584.0,
1285.0,4017.0,1955.0,1952.0,12594587.0,
1287.0,4013.0,1953.0,1949.0,12594591.0,
1285.0,4016.0,1955.0,1950.0,12594595.0,
1284.0,4014.0,1949.0,1939.0,12594599.0,
1284.0,4015.0,1950.0,1937.0,12594603.0,
1285.0,4015.0,1945.0,1931.0,12594607.0,
1286.0,4018.0,1944.0,1926.0,12594611.0,
1285.0,4013.0,1943.0,1920.0,12594615.0,
1284.0,4017.0,1940.0,1921.0,12594618.0,
1283.0,4015.0,1939.0,1918.0,12594622.0,
1285.0,4018.0,1938.0,1917.0,12594626.0,
1286.0,4017.0,1938.0,1917.0,12594630.0,
1285.0,4015.0,1932.0,1914.0,12594634.0,
1284.0,4017.0,1929.0,1919.0,12594638.0,
1284.0,4014.0,1926.0,1912.0,12594642.0,
1285.0,4015.0,1926.0,1916.0,12594646.0,
1285.0,4014.0,1925.0,1906.0,12594649.0,
1285.0,4016.0,1926.0,1907.0,12594653.0,
1284.0,4016.0,1923.0,1904.0,12594657.0,
1281.0,4015.0,1922.0,1898.0,12594661.0,
1284.0,4016.0,1920.0,1897.0,12594665.0,
1285.0,4015.0,1920.0,1897.0,12594669.0,
1286.0,4017.0,1915.0,1898.0,12594673.0,
1282.0,4016.0,1913.0,1895.0,12594676.0,
1282.0,4015.0,1911.0,1892.0,12594680.0,
1283.0,4017.0,1906.0,1893.0,12594684.0,
1285.0,4017.0,1901.0,1891.0,12594688.0,
1285.0,4012.0,1895.0,1886.0,12594692.0,
1284.0,4017.0,1889.0,1885.0,12594696.0,
1283.0,4015.0,1883.0,1879.0,12594700.0,
1284.0,4016.0,1881.0,1880.0,12594704.0,
1285.0,4015.0,1877.0,1877.0,12594707.0,
1285.0,4018.0,1872.0,1874.0,12594711.0,
1284.0,4014.0,1872.0,1868.0,12594715.0,
1284.0,4017.0,1865.0,1867.0,12594719.0,
1284.0,4016.0,1864.0,1861.0,12594723.0,
1284.0,4014.0,1860.0,1856.0,12594727.0,
1285.0,4016.0,1860.0,1854.0,12594731.0,
1284.0,4014.0,1859.0,1851.0,12594735.0,
1283.0,4016.0,1858.0,1850.0,12594739.0,
1283.0,4014.0,1852.0,1846.0,12594743.0,
1285.0,4017.0,1850.0,1847.0,12594746.0,
1285.0,4013.0,1849.0,1842.0,12594750.0,
1283.0,4017.0,1845.0,1843.0,12594754.0,
1283.0,4015.0,1845.0,1841.0,12594758.0,
1282.0,4017.0,1840.0,1840.0,12594762.0,
1284.0,4014.0,1836.0,1836.0,12594766.0,
1284.0,4016.0,1832.0,1838.0,12594770.0,
1284.0,4014.0,1833.0,1835.0,12594774.0,
1283.0,4016.0,1829.0,1838.0,12594778.0,
1282.0,4014.0,1827.0,1838.0,12594782.0,
1283.0,4017.0,1829.0,1840.0,12594785.0,
1284.0,4015.0,1830.0,1838.0,12594789.0,
1284.0,4017.0,1830.0,1837.0,12594793.0,
1282.0,4014.0,1829.0,1835.0,12594797.0,
1284.0,4016.0,1829.0,1833.0,12594801.0,
1284.0,4017.0,1830.0,1831.0,12594805.0,
1285.0,4014.0,1831.0,1830.0,12594809.0,
1284.0,4015.0,1833.0,1829.0,12594813.0,
1283.0,4015.0,1838.0,1826.0,12594817.0,
1282.0,4017.0,1836.0,1829.0,12594820.0,
1284.0,4014.0,1839.0,1821.0,12594824.0,
1284.0,4017.0,1841.0,1821.0,12594828.0,
1285.0,4014.0,1838.0,1817.0,12594832.0,
1283.0,4014.0,1841.0,1814.0,12594836.0,
1282.0,4017.0,1839.0,1812.0,12594840.0,
1284.0,4014.0,1837.0,1809.0,12594844.0,
1285.0,4017.0,1837.0,1809.0,12594847.0,
1285.0,4017.0,1837.0,1806.0,12594851.0,
1284.0,4017.0,1835.0,1806.0,12594855.0,
1284.0,4017.0,1837.0,1807.0,12594859.0,
1284.0,4014.0,1837.0,1806.0,12594863.0,
1284.0,4014.0,1834.0,1806.0,12594867.0,
1284.0,4014.0,1835.0,1803.0,12594871.0,
1284.0,4017.0,1836.0,1807.0,12594875.0,
1283.0,4016.0,1836.0,1807.0,12594879.0,
1284.0,4018.0,1835.0,1811.0,12594882.0,
1284.0,4014.0,1837.0,1814.0,12594886.0,
1285.0,4015.0,1837.0,1820.0,12594890.0,
1284.0,4015.0,1837.0,1830.0,12594894.0,
1283.0,4017.0,1835.0,1839.0,12594898.0,
1283.0,4014.0,1833.0,1847.0,12594902.0,
1283.0,4016.0,1833.0,1859.0,12594906.0,
1285.0,4013.0,1833.0,1867.0,12594910.0,
1284.0,4015.0,1832.0,1874.0,12594913.0,
1285.0,4015.0,1830.0,1888.0,12594917.0,
1281.0,4016.0,1830.0,1900.0,12594921.0,
1284.0,4017.0,1833.0,1912.0,12594925.0,
1284.0,4015.0,1832.0,1924.0,12594929.0,
1285.0,4014.0,1832.0,1933.0,12594933.0,
1283.0,4016.0,1834.0,1948.0,12594936.0,
1283.0,4013.0,1832.0,1961.0,12594940.0,
1283.0,4013.0,1835.0,1973.0,12594944.0,
1284.0,4014.0,1836.0,1984.0,12594948.0,
1284.0,4017.0,1838.0,1997.0,12594952.0,
1283.0,4014.0,1840.0,2007.0,12594956.0,
1283.0,4017.0,1845.0,2017.0,12594960.0,
1283.0,4013.0,1850.0,2023.0,12594963.0,
1284.0,4013.0,1857.0,2028.0,12594967.0,
1287.0,4013.0,1867.0,2038.0,12594971.0,
1284.0,4016.0,1873.0,2045.0,12594975.0,
1283.0,4011.0,1882.0,2049.0,12594979.0,
1283.0,4015.0,1893.0,2053.0,12594983.0,
1284.0,4014.0,1906.0,2058.0,12594987.0,
1284.0,4017.0,1914.0,2061.0,12594991.0,
1284.0,4014.0,1927.0,2068.0,12594995.0,
1283.0,4015.0,1937.0,2075.0,12594998.0,
1282.0,4014.0,1946.0,2077.0,12595002.0,
1283.0,4016.0,1960.0,2082.0,12595006.0,
1284.0,4015.0,1972.0,2084.0,12595010.0,
1284.0,4016.0,1982.0,2085.0,12595014.0,
1282.0,4014.0,1992.0,2086.0,12595018.0,
1283.0,4017.0,2004.0,2089.0,12595022.0,
1283.0,4014.0,2017.0,2091.0,12595026.0,
1284.0,4016.0,2026.0,2092.0,12595030.0,
1284.0,4016.0,2037.0,2094.0,12595033.0,
1283.0,4014.0,2046.0,2093.0,12595037.0,
1282.0,4016.0,2055.0,2095.0,12595041.0,
1283.0,4014.0,2064.0,2093.0,12595045.0,
1284.0,4016.0,2070.0,2092.0,12595049.0,
1284.0,4017.0,2075.0,2089.0,12595053.0,
1283.0,4017.0,2083.0,2093.0,12595057.0,
1282.0,4016.0,2088.0,2093.0,12595061.0,
1284.0,4016.0,2095.0,2094.0,12595065.0,
1284.0,4016.0,2097.0,2096.0,12595068.0,
1283.0,4014.0,2097.0,2091.0,12595072.0,
1282.0,4015.0,2100.0,2085.0,12595076.0,
1282.0,4016.0,2102.0,2086.0,12595080.0,
1282.0,4014.0,2099.0,2081.0,12595085.0,
1283.0,4014.0,2096.0,2083.0,12595088.0,
1285.0,4016.0,2097.0,2079.0,12595092.0,
1282.0,4015.0,2098.0,2071.0,12595096.0,
1283.0,4015.0,2097.0,2068.0,12595100.0,
1282.0,4017.0,2098.0,2063.0,12595104.0,
1285.0,4013.0,2097.0,2057.0,12595108.0,
1284.0,4015.0,2099.0,2049.0,12595112.0,
1283.0,4014.0,2099.0,2044.0,12595116.0,
1281.0,4017.0,2096.0,2038.0,12595120.0,
1282.0,4014.0,2097.0,2030.0,12595124.0,
1284.0,4017.0,2098.0,2024.0,12595127.0,
1285.0,4017.0,2098.0,2019.0,12595131.0,
1283.0,4017.0,2092.0,2014.0,12595135.0,
1282.0,4017.0,2091.0,2006.0,12595139.0,
1282.0,4014.0,2089.0,1999.0,12595143.0,
1284.0,4017.0,2086.0,1994.0,12595147.0,
1283.0,4013.0,2080.0,1985.0,12595151.0,
1282.0,4016.0,2079.0,1981.0,12595155.0,
1281.0,4014.0,2075.0,1977.0,12595158.0,
1283.0,4015.0,2073.0,1972.0,12595162.0,
1283.0,4016.0,2068.0,1968.0,12595166.0,
1284.0,4012.0,2065.0,1965.0,12595170.0,
1283.0,4018.0,2058.0,1962.0,12595174.0,
1282.0,4015.0,2051.0,1959.0,12595178.0,
1282.0,4016.0,2050.0,1961.0,12595182.0,
1282.0,4014.0,2043.0,1959.0,12595186.0,
1283.0,4017.0,2037.0,1959.0,12595189.0,
1284.0,4014.0,2031.0,1956.0,12595193.0,
1282.0,4016.0,2026.0,1959.0,12595197.0,
1281.0,4014.0,2023.0,1954.0,12595201.0,
1282.0,4015.0,2022.0,1958.0,12595205.0,
1284.0,4013.0,2015.0,1953.0,12595209.0,
1284.0,4017.0,2012.0,1952.0,12595213.0,
1282.0,4016.0,2009.0,1951.0,12595217.0,
1282.0,4018.0,2003.0,1950.0,12595221.0,
1282.0,4016.0,2002.0,1950.0,12595224.0,
1283.0,4015.0,1995.0,1950.0,12595228.0,
1284.0,4015.0,1995.0,1950.0,12595232.0,
1283.0,4015.0,1991.0,1950.0,12595236.0,
1282.0,4017.0,1991.0,1948.0,12595240.0,
1282.0,4016.0,1993.0,1948.0,12595244.0,
1283.0,4014.0,1994.0,1948.0,12595248.0,
1283.0,4016.0,1993.0,1948.0,12595252.0,
1283.0,4014.0,1995.0,1948.0,12595256.0,
1282.0,4016.0,1994.0,1948.0,12595260.0,
1283.0,4014.0,1995.0,1946.0,12595263.0,
1283.0,4015.0,1992.0,1945.0,12595267.0,
1284.0,4017.0,1992.0,1946.0,12595271.0,
1282.0,4015.0,1995.0,1945.0,12595275.0,
1283.0,4015.0,1994.0,1944.0,12595279.0,
1282.0,4013.0,1996.0,1945.0,12595283.0,
1283.0,4016.0,1994.0,1944.0,12595287.0,
1283.0,4014.0,1993.0,1944.0,12595291.0,
1284.0,4018.0,1987.0,1943.0,12595294.0,
1282.0,4015.0,1987.0,1941.0,12595298.0,
1282.0,4015.0,1983.0,1938.0,12595302.0,
1283.0,4014.0,1978.0,1934.0,12595306.0,
1284.0,4015.0,1973.0,1934.0,12595310.0,
1284.0,4015.0,1974.0,1932.0,12595314.0,
1282.0,4015.0,1971.0,1927.0,12595318.0,
1281.0,4016.0,1967.0,1924.0,12595322.0,
1282.0,4015.0,1966.0,1923.0,12595325.0,
1284.0,4015.0,1963.0,1916.0,12595329.0,
1283.0,4014.0,1962.0,1912.0,12595333.0,
1281.0,4014.0,1961.0,1913.0,12595338.0,
1281.0,4016.0,1963.0,1908.0,12595341.0,
1282.0,4016.0,1966.0,1906.0,12595345.0,
1281.0,4015.0,1964.0,1901.0,12595349.0,
1283.0,4016.0,1963.0,1903.0,12595353.0,
1282.0,4014.0,1965.0,1898.0,12595357.0,
1282.0,4015.0,1962.0,1897.0,12595361.0,
1282.0,4014.0,1964.0,1893.0,12595365.0,
1284.0,4016.0,1964.0,1891.0,12595369.0,
1282.0,4016.0,1964.0,1883.0,12595372.0,
1283.0,4015.0,1962.0,1884.0,12595376.0,
1282.0,4015.0,1962.0,1882.0,12595380.0,
1282.0,4015.0,1964.0,1882.0,12595384.0,
1283.0,4017.0,1960.0,1879.0,12595388.0,
1285.0,4014.0,1959.0,1875.0,12595392.0,
1282.0,4017.0,1955.0,1871.0,12595396.0,
1282.0,4014.0,1955.0,1868.0,12595400.0,
1281.0,4018.0,1954.0,1864.0,12595403.0,
1284.0,4015.0,1954.0,1858.0,12595407.0,
1284.0,4016.0,1953.0,1855.0,12595411.0,
1284.0,4017.0,1955.0,1851.0,12595415.0,
1282.0,4019.0,1952.0,1845.0,12595419.0,
1283.0,4015.0,1948.0,1840.0,12595423.0,
1284.0,4016.0,1944.0,1838.0,12595427.0,
1284.0,4014.0,1941.0,1837.0,12595431.0,
1284.0,4017.0,1939.0,1837.0,12595435.0,
1282.0,4014.0,1935.0,1835.0,12595438.0,
1282.0,4013.0,1934.0,1833.0,12595442.0,
1283.0,4015.0,1935.0,1829.0,12595446.0,
1284.0,4014.0,1933.0,1830.0,12595450.0,
1285.0,4015.0,1934.0,1828.0,12595454.0,
1282.0,4016.0,1932.0,1831.0,12595458.0,
1282.0,4015.0,1928.0,1829.0,12595462.0,
1284.0,4017.0,1926.0,1831.0,12595466.0,
1283.0,4014.0,1925.0,1826.0,12595470.0,
1284.0,4016.0,1918.0,1826.0,12595474.0,
1283.0,4016.0,1915.0,1824.0,12595478.0,
1283.0,4017.0,1915.0,1822.0,12595482.0,
1283.0,4013.0,1912.0,1820.0,12595486.0,
1284.0,4017.0,1909.0,1818.0,12595490.0,
1284.0,4014.0,1908.0,1819.0,12595494.0,
1283.0,4016.0,1903.0,1818.0,12595497.0,
1282.0,4015.0,1903.0,1820.0,12595501.0,
1282.0,4016.0,1901.0,1816.0,12595505.0,
1284.0,4014.0,1899.0,1816.0,12595509.0,
1285.0,4014.0,1898.0,1812.0,12595513.0,
1284.0,4014.0,1899.0,1810.0,12595517.0,
1283.0,4014.0,1897.0,1807.0,12595521.0,
1283.0,4017.0,1896.0,1812.0,12595525.0,
1284.0,4014.0,1895.0,1813.0,12595529.0,
1284.0,4015.0,1893.0,1815.0,12595533.0,
1283.0,4017.0,1891.0,1818.0,12595539.0,
1282.0,4014.0,1892.0,1817.0,12595543.0,
1284.0,4016.0,1889.0,1821.0,12595546.0,
1284.0,4016.0,1891.0,1823.0,12595550.0,
1284.0,4016.0,1888.0,1823.0,12595554.0,
1283.0,4013.0,1888.0,1821.0,12595558.0,
1283.0,4016.0,1884.0,1825.0,12595562.0,
1283.0,4015.0,1887.0,1820.0,12595566.0,
1284.0,4015.0,1887.0,1824.0,12595570.0,
1284.0,4014.0,1887.0,1825.0,12595574.0,
1284.0,4017.0,1891.0,1827.0,12595577.0,
1282.0,4014.0,1891.0,1824.0,12595581.0,
1283.0,4014.0,1894.0,1822.0,12595585.0,
1284.0,4017.0,1894.0,1823.0,12595589.0,
1285.0,4014.0,1897.0,1822.0,12595593.0,
1283.0,4017.0,1899.0,1819.0,12595597.0,
1282.0,4013.0,1900.0,1813.0,12595601.0,
1283.0,4017.0,1898.0,1811.0,12595605.0,
1284.0,4014.0,1896.0,1811.0,12595608.0,
1288.0,4015.0,1899.0,1809.0,12595612.0,
1283.0,4014.0,1896.0,1813.0,12595616.0,
1282.0,4016.0,1895.0,1810.0,12595620.0,
1282.0,4016.0,1895.0,1812.0,12595624.0,
1284.0,4014.0,1895.0,1807.0,12595628.0,
1285.0,4017.0,1892.0,1810.0,12595632.0,
1284.0,4015.0,1896.0,1808.0,12595635.0,
1283.0,4017.0,1896.0,1805.0,12595639.0,
1283.0,4015.0,1896.0,1804.0,12595643.0,
1283.0,4016.0,1899.0,1805.0,12595647.0,
1284.0,4015.0,1897.0,1805.0,12595651.0,
1284.0,4014.0,1895.0,1805.0,12595655.0,
1283.0,4014.0,1894.0,1809.0,12595659.0,
1283.0,4016.0,1889.0,1812.0,12595663.0,
1284.0,4015.0,1888.0,1813.0,12595667.0,
1285.0,4017.0,1885.0,1815.0,12595671.0,
1283.0,4013.0,1880.0,1822.0,12595675.0,
1284.0,4015.0,1878.0,1829.0,12595679.0,
1283.0,4014.0,1874.0,1836.0,12595682.0,
1285.0,4015.0,1867.0,1843.0,12595686.0,
1285.0,4015.0,1864.0,1852.0,12595690.0,
1284.0,4013.0,1863.0,1863.0,12595694.0,
1283.0,4013.0,1862.0,1874.0,12595698.0,
1283.0,4016.0,1860.0,1883.0,12595702.0,
1283.0,4016.0,1860.0,1895.0,12595706.0,
1285.0,4016.0,1860.0,1908.0,12595710.0,
1285.0,4014.0,1862.0,1917.0,12595714.0,
1284.0,4017.0,1865.0,1929.0,12595717.0,
1283.0,4017.0,1873.0,1939.0,12595721.0,
1284.0,4017.0,1877.0,1950.0,12595725.0,
1284.0,4016.0,1885.0,1963.0,12595729.0,
1285.0,4013.0,1895.0,1974.0,12595733.0,
1284.0,4016.0,1904.0,1983.0,12595737.0,
1284.0,4015.0,1911.0,1991.0,12595741.0,
1284.0,4017.0,1918.0,2000.0,12595744.0,
1285.0,4014.0,1929.0,2008.0,12595748.0,
1285.0,4014.0,1939.0,2017.0,12595752.0,
1285.0,4013.0,1950.0,2026.0,12595756.0,
1284.0,4015.0,1962.0,2030.0,12595760.0,
1283.0,4015.0,1977.0,2036.0,12595764.0,
1285.0,4014.0,1990.0,2042.0,12595768.0,
1286.0,4017.0,2007.0,2049.0,12595772.0,
1285.0,4016.0,2021.0,2055.0,12595776.0,
1285.0,4016.0,2037.0,2062.0,12595780.0,
1285.0,4016.0,2049.0,2065.0,12595783.0,
1286.0,4017.0,2061.0,2068.0,12595787.0,
1285.0,4013.0,2076.0,2067.0,12595791.0,
1285.0,4014.0,2084.0,2068.0,12595795.0,
1282.0,4014.0,2099.0,2064.0,12595800.0,
1285.0,4013.0,2106.0,2063.0,12595804.0,
1286.0,4017.0,2112.0,2061.0,12595808.0,
1287.0,4015.0,2120.0,2061.0,12595812.0,
1286.0,4014.0,2125.0,2058.0,12595816.0,
1285.0,4015.0,2131.0,2058.0,12595820.0,
1284.0,4014.0,2133.0,2055.0,12595824.0,
1286.0,4015.0,2144.0,2054.0,12595828.0,
1287.0,4014.0,2147.0,2052.0,12595831.0,
1286.0,4014.0,2148.0,2054.0,12595835.0,
1284.0,4014.0,2156.0,2051.0,12595839.0,
1285.0,4014.0,2157.0,2047.0,12595843.0,
1285.0,4016.0,2159.0,2048.0,12595847.0,
1287.0,4016.0,2160.0,2043.0,12595851.0,
1287.0,4015.0,2160.0,2042.0,12595855.0,
1284.0,4016.0,2160.0,2040.0,12595859.0,
1285.0,4014.0,2158.0,2030.0,12595863.0,
1286.0,4015.0,2159.0,2028.0,12595867.0,
1287.0,4014.0,2159.0,2019.0,12595871.0,
1287.0,4017.0,2158.0,2015.0,12595875.0,
1284.0,4014.0,2154.0,2012.0,12595878.0,
1285.0,4017.0,2153.0,2007.0,12595882.0,
1286.0,4017.0,2152.0,2005.0,12595886.0,
1287.0,4016.0,2151.0,2002.0,12595890.0,
1287.0,4014.0,2151.0,2000.0,12595894.0,
1285.0,4016.0,2148.0,1997.0,12595898.0,
1285.0,4014.0,2152.0,1993.0,12595902.0,
1286.0,4017.0,2149.0,1989.0,12595905.0,
1286.0,4015.0,2151.0,1984.0,12595909.0,
1287.0,4016.0,2147.0,1982.0,12595913.0,
1285.0,4013.0,2147.0,1975.0,12595917.0,
1285.0,4017.0,2145.0,1977.0,12595921.0,
1286.0,4014.0,2139.0,1968.0,12595925.0,
1286.0,4017.0,2142.0,1968.0,12595929.0,
1287.0,4013.0,2141.0,1965.0,12595933.0,
1285.0,4017.0,2140.0,1963.0,12595936.0,
1285.0,4018.0,2138.0,1959.0,12595940.0,
1285.0,4014.0,2136.0,1956.0,12595944.0,
1286.0,4014.0,2135.0,1956.0,12595948.0,
1289.0,4017.0,2132.0,1957.0,12595952.0,
1285.0,4016.0,2130.0,1953.0,12595956.0,
1285.0,4016.0,2123.0,1951.0,12595960.0,
1284.0,4017.0,2121.0,1952.0,12595964.0,
1286.0,4015.0,2116.0,1951.0,12595968.0,
1287.0,4018.0,2115.0,1952.0,12595972.0,
1286.0,4014.0,2114.0,1953.0,12595976.0,
1285.0,4016.0,2110.0,1956.0,12595980.0,
1284.0,4014.0,2105.0,1954.0,12595983.0,
1286.0,4017.0,2103.0,1958.0,12595987.0,
1286.0,4013.0,2097.0,1957.0,12595991.0,
1286.0,4014.0,2095.0,1957.0,12595995.0,
1284.0,4018.0,2089.0,1960.0,12595999.0,
1284.0,4017.0,2087.0,1961.0,12596003.0,
1286.0,4014.0,2086.0,1958.0,12596007.0,
1286.0,4016.0,2081.0,1958.0,12596011.0,
1287.0,4014.0,2080.0,1957.0,12596015.0,
1284.0,4018.0,2076.0,1958.0,12596018.0,
1285.0,4016.0,2076.0,1960.0,12596022.0,
1286.0,4014.0,2073.0,1959.0,12596026.0,
1286.0,4014.0,2073.0,1961.0,12596030.0,
1286.0,4017.0,2074.0,1960.0,12596034.0,
1285.0,4014.0,2072.0,1961.0,12596038.0,
1285.0,4016.0,2074.0,1960.0,12596042.0,
1286.0,4013.0,2069.0,1957.0,12596045.0,
1286.0,4017.0,2068.0,1953.0,12596049.0,
1286.0,4017.0,2066.0,1950.0,12596053.0,
1285.0,4013.0,2066.0,1947.0,12596057.0,
1285.0,4015.0,2057.0,1947.0,12596061.0,
1285.0,4014.0,2059.0,1941.0,12596065.0,
1285.0,4016.0,2056.0,1936.0,12596069.0,
1286.0,4014.0,2053.0,1933.0,12596073.0,
1285.0,4015.0,2051.0,1930.0,12596076.0,
1285.0,4014.0,2048.0,1928.0,12596080.0,
1285.0,4015.0,2049.0,1926.0,12596084.0,
1286.0,4014.0,2050.0,1921.0,12596088.0,
1287.0,4018.0,2049.0,1917.0,12596092.0,
1287.0,4014.0,2047.0,1915.0,12596096.0,
1286.0,4016.0,2046.0,1911.0,12596100.0,
1285.0,4013.0,2046.0,1912.0,12596103.0,
1287.0,4015.0,2047.0,1910.0,12596107.0,
1287.0,4014.0,2046.0,1905.0,12596111.0,
1287.0,4017.0,2042.0,1903.0,12596115.0,
1285.0,4018.0,2042.0,1901.0,12596119.0,
1284.0,4015.0,2039.0,1898.0,12596123.0,
1287.0,4017.0,2034.0,1897.0,12596127.0,
1286.0,4015.0,2033.0,1892.0,12596131.0,
1286.0,4017.0,2030.0,1892.0,12596135.0,
1285.0,4014.0,2029.0,1888.0,12596139.0,
1285.0,4016.0,2025.0,1890.0,12596142.0,
1285.0,4016.0,2021.0,1888.0,12596147.0,
1286.0,4014.0,2021.0,1886.0,12596151.0,
1287.0,4015.0,2018.0,1888.0,12596155.0,
1286.0,4015.0,2015.0,1887.0,12596159.0,
1285.0,4016.0,2012.0,1889.0,12596163.0,
1286.0,4015.0,2012.0,1883.0,12596167.0,
1286.0,4016.0,2009.0,1886.0,12596170.0,
1286.0,4016.0,2010.0,1884.0,12596174.0,
1285.0,4014.0,2008.0,1881.0,12596178.0,
1284.0,4016.0,2007.0,1879.0,12596182.0,
1285.0,4016.0,2006.0,1873.0,12596186.0,
1286.0,4016.0,2004.0,1874.0,12596190.0,
1287.0,4013.0,2004.0,1869.0,12596194.0,
1286.0,4017.0,2004.0,1866.0,12596198.0,
1285.0,4015.0,2005.0,1866.0,12596202.0,
1286.0,4016.0,2000.0,1864.0,12596206.0,
1286.0,4015.0,1996.0,1863.0,12596209.0,
1287.0,4013.0,1993.0,1859.0,12596213.0,
1285.0,4013.0,1994.0,1860.0,12596217.0,
1285.0,4016.0,1988.0,1861.0,12596221.0,
1286.0,4014.0,1984.0,1858.0,12596225.0,
1287.0,4017.0,1981.0,1859.0,12596229.0,
1287.0,4014.0,1979.0,1853.0,12596233.0,
1286.0,4016.0,1973.0,1855.0,12596237.0,
1286.0,4013.0,1972.0,1853.0,12596240.0,
1286.0,4014.0,1966.0,1853.0,12596244.0,
1286.0,4016.0,1965.0,1852.0,12596248.0,
1286.0,4016.0,1961.0,1850.0,12596252.0,
1286.0,4015.0,1963.0,1848.0,12596256.0,
1285.0,4012.0,1962.0,1846.0,12596260.0,
1285.0,4015.0,1960.0,1847.0,12596264.0,
1286.0,4015.0,1958.0,1846.0,12596268.0,
1287.0,4019.0,1956.0,1846.0,12596272.0,
1286.0,4014.0,1955.0,1843.0,12596276.0,
1285.0,4017.0,1949.0,1845.0,12596280.0,
1286.0,4015.0,1946.0,1843.0,12596283.0,
1286.0,4017.0,1949.0,1844.0,12596287.0,
1287.0,4016.0,1941.0,1847.0,12596291.0,
1287.0,4014.0,1937.0,1844.0,12596295.0,
1286.0,4016.0,1938.0,1847.0,12596299.0,
1284.0,4014.0,1939.0,1845.0,12596303.0,
1287.0,4017.0,1938.0,1843.0,12596307.0,
1287.0,4014.0,1936.0,1845.0,12596311.0,
1287.0,4017.0,1938.0,1843.0,12596315.0,
1286.0,4014.0,1938.0,1841.0,12596318.0,
1284.0,4014.0,1938.0,1839.0,12596322.0,
1285.0,4013.0,1937.0,1840.0,12596326.0,
1287.0,4017.0,1938.0,1841.0,12596330.0,
1287.0,4016.0,1937.0,1838.0,12596334.0,
1285.0,4017.0,1938.0,1841.0,12596338.0,
1285.0,4014.0,1936.0,1841.0,12596342.0,
1286.0,4015.0,1937.0,1844.0,12596346.0,
1287.0,4014.0,1936.0,1841.0,12596350.0,
1287.0,4016.0,1936.0,1842.0,12596354.0,
1286.0,4015.0,1933.0,1840.0,12596357.0,
1285.0,4014.0,1930.0,1838.0,12596361.0,
1285.0,4016.0,1929.0,1838.0,12596365.0,
1287.0,4014.0,1927.0,1838.0,12596369.0,
1287.0,4016.0,1923.0,1838.0,12596373.0,
1285.0,4013.0,1921.0,1836.0,12596377.0,
1284.0,4016.0,1920.0,1835.0,12596381.0,
1286.0,4013.0,1918.0,1838.0,12596384.0,
1286.0,4014.0,1914.0,1835.0,12596388.0,
1286.0,4015.0,1914.0,1835.0,12596392.0,
1285.0,4015.0,1913.0,1831.0,12596396.0,
1285.0,4017.0,1909.0,1833.0,12596400.0,
1285.0,4016.0,1907.0,1832.0,12596404.0,
1286.0,4016.0,1903.0,1831.0,12596408.0,
1287.0,4015.0,1903.0,1832.0,12596412.0,
1285.0,4015.0,1905.0,1832.0,12596416.0,
1284.0,4015.0,1902.0,1835.0,12596420.0,
1284.0,4014.0,1904.0,1839.0,12596424.0,
1285.0,4017.0,1903.0,1845.0,12596428.0,
1286.0,4014.0,1903.0,1849.0,12596431.0,
1285.0,4014.0,1904.0,1857.0,12596435.0,
1285.0,4018.0,1907.0,1862.0,12596439.0,
1285.0,4015.0,1908.0,1870.0,12596443.0,
1285.0,4016.0,1905.0,1880.0,12596447.0,
1286.0,4017.0,1905.0,1892.0,12596451.0,
1285.0,4016.0,1904.0,1903.0,12596455.0,
1283.0,4014.0,1907.0,1910.0,12596459.0,
1284.0,4016.0,1905.0,1920.0,12596463.0,
1285.0,4014.0,1911.0,1931.0,12596467.0,
1285.0,4015.0,1915.0,1942.0,12596470.0,
1285.0,4014.0,1920.0,1950.0,12596474.0,
1283.0,4016.0,1920.0,1961.0,12596478.0,
1284.0,4015.0,1920.0,1964.0,12596482.0,
1284.0,4017.0,1925.0,1976.0,12596486.0,
1285.0,4017.0,1930.0,1980.0,12596490.0,
1285.0,4013.0,1935.0,1985.0,12596494.0,
1283.0,4016.0,1942.0,1994.0,12596498.0,
1283.0,4016.0,1949.0,1995.0,12596502.0,
1284.0,4014.0,1957.0,2001.0,12596506.0,
1285.0,4014.0,1968.0,2006.0,12596510.0,
1285.0,4015.0,1981.0,2012.0,12596514.0,
1283.0,4016.0,1992.0,2016.0,12596518.0,
1283.0,4017.0,2005.0,2021.0,12596522.0,
1284.0,4014.0,2018.0,2022.0,12596526.0,
1284.0,4016.0,2031.0,2025.0,12596530.0,
1283.0,4014.0,2054.0,2029.0,12596536.0,
1282.0,4014.0,2075.0,2035.0,12596541.0,
1283.0,4014.0,2090.0,2038.0,12596545.0,
1284.0,4015.0,2103.0,2037.0,12596549.0,
1285.0,4016.0,2119.0,2036.0,12596553.0,
1284.0,4014.0,2131.0,2036.0,12596557.0,
1284.0,4017.0,2142.0,2035.0,12596561.0,
1283.0,4015.0,2156.0,2033.0,12596565.0,
1285.0,4018.0,2172.0,2033.0,12596568.0,
1284.0,4013.0,2181.0,2027.0,12596572.0,
1284.0,4015.0,2193.0,2030.0,12596576.0,
1283.0,4016.0,2204.0,2028.0,12596580.0,
1284.0,4013.0,2213.0,2025.0,12596584.0,
1284.0,4015.0,2222.0,2022.0,12596588.0,
1285.0,4012.0,2232.0,2018.0,12596592.0,
1285.0,4017.0,2241.0,2019.0,12596596.0,
1284.0,4013.0,2250.0,2020.0,12596600.0,
1284.0,4016.0,2257.0,2016.0,12596604.0,
1286.0,4013.0,2263.0,2011.0,12596608.0,
1286.0,4015.0,2268.0,2010.0,12596612.0,
1286.0,4014.0,2273.0,2004.0,12596616.0,
1285.0,4017.0,2273.0,2001.0,12596620.0,
1285.0,4014.0,2276.0,1995.0,12596623.0,
1286.0,4017.0,2280.0,1994.0,12596627.0,
1287.0,4017.0,2280.0,1991.0,12596631.0,
1288.0,4016.0,2284.0,1985.0,12596635.0,
1287.0,4014.0,2284.0,1978.0,12596639.0,
1285.0,4017.0,2287.0,1973.0,12596643.0,
1287.0,4014.0,2289.0,1966.0,12596647.0,
1287.0,4016.0,2288.0,1961.0,12596651.0,
1288.0,4013.0,2287.0,1957.0,12596655.0,
1286.0,4016.0,2280.0,1954.0,12596659.0,
1286.0,4015.0,2277.0,1949.0,12596663.0,
1286.0,4016.0,2274.0,1947.0,12596666.0,
1287.0,4014.0,2268.0,1942.0,12596670.0,
1288.0,4015.0,2260.0,1937.0,12596674.0,
1286.0,4015.0,2255.0,1936.0,12596678.0,
1286.0,4015.0,2251.0,1934.0,12596682.0,
1287.0,4016.0,2245.0,1932.0,12596686.0,
1289.0,4017.0,2242.0,1934.0,12596690.0,
1288.0,4013.0,2236.0,1929.0,12596694.0,
1287.0,4014.0,2227.0,1929.0,12596698.0,
1286.0,4017.0,2221.0,1928.0,12596702.0,
1287.0,4014.0,2211.0,1929.0,12596706.0,
1288.0,4015.0,2204.0,1927.0,12596710.0,
1289.0,4016.0,2195.0,1928.0,12596713.0,
1289.0,4016.0,2187.0,1928.0,12596717.0,
1287.0,4015.0,2183.0,1930.0,12596721.0,
1287.0,4016.0,2173.0,1933.0,12596725.0,
1289.0,4017.0,2167.0,1932.0,12596729.0,
1289.0,4014.0,2160.0,1935.0,12596733.0,
1289.0,4018.0,2156.0,1941.0,12596737.0,
1287.0,4015.0,2154.0,1941.0,12596741.0,
1287.0,4017.0,2150.0,1943.0,12596744.0,
1289.0,4015.0,2145.0,1947.0,12596748.0,
1290.0,4015.0,2141.0,1947.0,12596752.0,
1289.0,4015.0,2139.0,1946.0,12596756.0,
1288.0,4014.0,2136.0,1951.0,12596760.0,
1289.0,4016.0,2132.0,1951.0,12596764.0,
1286.0,4014.0,2129.0,1951.0,12596768.0,
1290.0,4018.0,2124.0,1949.0,12596772.0,
1290.0,4013.0,2123.0,1948.0,12596775.0,
1287.0,4014.0,2114.0,1948.0,12596779.0,
1288.0,4017.0,2114.0,1946.0,12596783.0,
1288.0,4016.0,2111.0,1944.0,12596787.0,
1291.0,4016.0,2108.0,1938.0,12596791.0,
1289.0,4015.0,2106.0,1933.0,12596795.0,
1288.0,4012.0,2106.0,1929.0,12596799.0,
1289.0,4017.0,2105.0,1926.0,12596803.0,
1290.0,4013.0,2107.0,1926.0,12596807.0,
1288.0,4013.0,2106.0,1920.0,12596811.0,
1289.0,4017.0,2106.0,1920.0,12596814.0,
1288.0,4014.0,2108.0,1917.0,12596818.0,
1287.0,4015.0,2107.0,1915.0,12596822.0,
1287.0,4015.0,2104.0,1912.0,12596826.0,
1288.0,4014.0,2107.0,1908.0,12596830.0,
1289.0,4017.0,2108.0,1907.0,12596834.0,
1287.0,4017.0,2112.0,1904.0,12596838.0,
1287.0,4016.0,2115.0,1901.0,12596842.0,
1288.0,4013.0,2119.0,1895.0,12596846.0,
1287.0,4017.0,2115.0,1895.0,12596850.0,
1288.0,4014.0,2117.0,1892.0,12596854.0,
1287.0,4016.0,2117.0,1895.0,12596857.0,
1286.0,4014.0,2118.0,1893.0,12596861.0,
1286.0,4014.0,2117.0,1888.0,12596865.0,
1287.0,4017.0,2115.0,1889.0,12596869.0,
1288.0,4017.0,2116.0,1890.0,12596873.0,
1287.0,4014.0,2113.0,1887.0,12596877.0,
1286.0,4016.0,2110.0,1890.0,12596881.0,
1283.0,4015.0,2109.0,1883.0,12596884.0,
1288.0,4016.0,2106.0,1886.0,12596888.0,
1288.0,4016.0,2103.0,1885.0,12596892.0,
1288.0,4016.0,2100.0,1883.0,12596896.0,
1286.0,4014.0,2097.0,1880.0,12596900.0,
1287.0,4016.0,2091.0,1882.0,12596904.0,
1288.0,4013.0,2087.0,1877.0,12596908.0,
1288.0,4017.0,2084.0,1878.0,12596912.0,
1288.0,4013.0,2081.0,1877.0,12596916.0,
1287.0,4016.0,2077.0,1873.0,12596919.0,
1287.0,4013.0,2075.0,1870.0,12596923.0,
1287.0,4019.0,2074.0,1871.0,12596927.0,
1289.0,4016.0,2074.0,1875.0,12596931.0,
1289.0,4016.0,2071.0,1869.0,12596935.0,
1287.0,4015.0,2074.0,1869.0,12596939.0,
1287.0,4017.0,2072.0,1869.0,12596943.0,
1287.0,4014.0,2070.0,1868.0,12596947.0,
1286.0,4016.0,2068.0,1867.0,12596951.0,
1288.0,4014.0,2067.0,1865.0,12596954.0,
1288.0,4014.0,2064.0,1865.0,12596959.0,
1287.0,4016.0,2059.0,1862.0,12596963.0,
1287.0,4014.0,2057.0,1857.0,12596967.0,
1289.0,4016.0,2047.0,1857.0,12596970.0,
1289.0,4013.0,2044.0,1851.0,12596974.0,
1287.0,4015.0,2042.0,1851.0,12596978.0,
1287.0,4017.0,2039.0,1852.0,12596982.0,
1288.0,4014.0,2034.0,1845.0,12596986.0,
1289.0,4017.0,2028.0,1843.0,12596990.0,
1290.0,4014.0,2024.0,1840.0,12596994.0,
1288.0,4016.0,2017.0,1838.0,12596998.0,
1287.0,4014.0,2014.0,1833.0,12597001.0,
1288.0,4013.0,2007.0,1834.0,12597005.0,
1289.0,4014.0,2010.0,1832.0,12597009.0,
1290.0,4016.0,2012.0,1830.0,12597013.0,
1289.0,4014.0,2008.0,1829.0,12597017.0,
1288.0,4017.0,2011.0,1828.0,12597021.0,
1289.0,4014.0,2011.0,1828.0,12597025.0,
1290.0,4014.0,2017.0,1831.0,12597029.0,
1290.0,4017.0,2017.0,1833.0,12597033.0,
1290.0,4015.0,2018.0,1833.0,12597037.0,
1287.0,4016.0,2021.0,1835.0,12597041.0,
1290.0,4014.0,2016.0,1837.0,12597045.0,
1289.0,4016.0,2012.0,1840.0,12597048.0,
1291.0,4014.0,2014.0,1840.0,12597052.0,
1289.0,4016.0,2013.0,1843.0,12597056.0,
1288.0,4017.0,2010.0,1847.0,12597060.0,
1288.0,4014.0,2007.0,1846.0,12597064.0,
1290.0,4017.0,2008.0,1846.0,12597068.0,
1290.0,4013.0,2006.0,1846.0,12597072.0,
1291.0,4016.0,2002.0,1844.0,12597075.0,
1288.0,4014.0,2002.0,1845.0,12597080.0,
1288.0,4017.0,1996.0,1843.0,12597083.0,
1289.0,4013.0,1994.0,1843.0,12597087.0,
1291.0,4017.0,1994.0,1845.0,12597091.0,
1289.0,4015.0,1991.0,1845.0,12597095.0,
1288.0,4015.0,1994.0,1844.0,12597099.0,
1288.0,4017.0,1989.0,1844.0,12597103.0,
1289.0,4015.0,1989.0,1846.0,12597107.0,
1289.0,4017.0,1986.0,1851.0,12597111.0,
1290.0,4014.0,1985.0,1853.0,12597115.0,
1288.0,4016.0,1979.0,1856.0,12597119.0,
1287.0,4016.0,1980.0,1856.0,12597123.0,
1288.0,4016.0,1977.0,1861.0,12597127.0,
1289.0,4014.0,1975.0,1861.0,12597131.0,
1289.0,4017.0,1973.0,1865.0,12597134.0,
1288.0,4013.0,1970.0,1863.0,12597138.0,
1287.0,4014.0,1970.0,1861.0,12597142.0,
1288.0,4014.0,1966.0,1861.0,12597146.0,
1289.0,4016.0,1965.0,1866.0,12597150.0,
1289.0,4017.0,1965.0,1867.0,12597154.0,
1288.0,4013.0,1964.0,1868.0,12597158.0,
1288.0,4017.0,1961.0,1872.0,12597162.0,
1287.0,4014.0,1962.0,1878.0,12597166.0,
1289.0,4017.0,1962.0,1882.0,12597170.0,
1288.0,4014.0,1960.0,1888.0,12597174.0,
1288.0,4016.0,1962.0,1896.0,12597178.0,
1286.0,4014.0,1961.0,1902.0,12597182.0,
1287.0,4016.0,1957.0,1911.0,12597185.0,
1288.0,4013.0,1960.0,1919.0,12597189.0,
1289.0,4014.0,1956.0,1924.0,12597193.0,
1288.0,4017.0,1955.0,1934.0,12597197.0,
1287.0,4015.0,1957.0,1938.0,12597201.0,
1286.0,4016.0,1960.0,1943.0,12597205.0,
1288.0,4015.0,1963.0,1953.0,12597209.0,
1289.0,4016.0,1969.0,1960.0,12597213.0,
1288.0,4013.0,1972.0,1968.0,12597217.0,
1287.0,4016.0,1981.0,1975.0,12597221.0,
1287.0,4014.0,1989.0,1977.0,12597224.0,
1288.0,4014.0,1998.0,1983.0,12597228.0,
1289.0,4017.0,2005.0,1990.0,12597232.0,
1288.0,4016.0,2015.0,1991.0,12597236.0,
1286.0,4013.0,2028.0,1993.0,12597240.0,
1286.0,4016.0,2039.0,1997.0,12597244.0,
1287.0,4015.0,2054.0,2001.0,12597248.0,
1288.0,4013.0,2069.0,2000.0,12597252.0,
1288.0,4016.0,2083.0,2005.0,12597256.0,
1287.0,4014.0,2099.0,2007.0,12597260.0,
1286.0,4017.0,2115.0,2006.0,12597264.0,
1287.0,4013.0,2130.0,2012.0,12597268.0,
1288.0,4015.0,2144.0,2012.0,12597272.0,
1285.0,4015.0,2161.0,2014.0,12597276.0,
1287.0,4016.0,2174.0,2017.0,12597279.0,
1286.0,4013.0,2191.0,2016.0,12597283.0,
1286.0,4014.0,2206.0,2015.0,12597287.0,
1288.0,4017.0,2219.0,2014.0,12597291.0,
1287.0,4016.0,2233.0,2011.0,12597295.0,
1287.0,4014.0,2251.0,2015.0,12597299.0,
1285.0,4017.0,2264.0,2014.0,12597303.0,
1286.0,4014.0,2279.0,2011.0,12597307.0,
1289.0,4015.0,2290.0,2013.0,12597311.0,
1288.0,4013.0,2307.0,2008.0,12597314.0,
1286.0,4014.0,2318.0,2005.0,12597318.0,
1286.0,4013.0,2327.0,2003.0,12597322.0,
1287.0,4014.0,2338.0,1998.0,12597326.0,
1288.0,4016.0,2346.0,2000.0,12597331.0,
1288.0,4011.0,2357.0,1996.0,12597335.0,
1286.0,4016.0,2364.0,1994.0,12597339.0,
1285.0,4012.0,2367.0,1989.0,12597343.0,
1286.0,4017.0,2371.0,1992.0,12597347.0,
1288.0,4014.0,2372.0,1987.0,12597351.0,
1287.0,4017.0,2377.0,1985.0,12597355.0,
1287.0,4014.0,2377.0,1980.0,12597358.0,
1285.0,4013.0,2377.0,1974.0,12597362.0,
1287.0,4016.0,2374.0,1975.0,12597366.0,
1288.0,4016.0,2375.0,1974.0,12597370.0,
1288.0,4014.0,2375.0,1973.0,12597374.0,
1287.0,4016.0,2370.0,1974.0,12597378.0,
1286.0,4013.0,2370.0,1970.0,12597382.0,
1286.0,4015.0,2363.0,1971.0,12597386.0,
1288.0,4015.0,2360.0,1967.0,12597390.0,
1288.0,4017.0,2355.0,1966.0,12597394.0,
1288.0,4015.0,2352.0,1965.0,12597398.0,
1286.0,4014.0,2346.0,1962.0,12597402.0,
1288.0,4018.0,2343.0,1963.0,12597405.0,
1288.0,4014.0,2335.0,1959.0,12597409.0,
1289.0,4017.0,2330.0,1958.0,12597413.0,
1288.0,4017.0,2325.0,1956.0,12597417.0,
1287.0,4016.0,2315.0,1955.0,12597421.0,
1287.0,4013.0,2311.0,1951.0,12597425.0,
1288.0,4016.0,2302.0,1952.0,12597429.0,
1289.0,4015.0,2294.0,1952.0,12597433.0,
1288.0,4016.0,2288.0,1952.0,12597437.0,
1287.0,4014.0,2279.0,1948.0,12597441.0,
1287.0,4017.0,2272.0,1953.0,12597445.0,
1288.0,4014.0,2262.0,1948.0,12597448.0,
1288.0,4017.0,2258.0,1949.0,12597452.0,
1287.0,4015.0,2253.0,1948.0,12597456.0,
1287.0,4017.0,2250.0,1951.0,12597460.0,
1286.0,4014.0,2248.0,1944.0,12597464.0,
1288.0,4017.0,2245.0,1945.0,12597468.0,
1288.0,4014.0,2241.0,1944.0,12597472.0,
1289.0,4016.0,2238.0,1944.0,12597476.0,
1287.0,4014.0,2234.0,1944.0,12597479.0,
1286.0,4015.0,2230.0,1947.0,12597483.0,
1288.0,4016.0,2222.0,1951.0,12597487.0,
1289.0,4013.0,2218.0,1949.0,12597491.0,
1288.0,4016.0,2216.0,1952.0,12597495.0,
1288.0,4015.0,2211.0,1950.0,12597499.0,
1288.0,4016.0,2206.0,1947.0,12597503.0,
1288.0,4013.0,2205.0,1948.0,12597507.0,
1289.0,4015.0,2202.0,1950.0,12597510.0,
1290.0,4014.0,2200.0,1947.0,12597514.0,
1288.0,4016.0,2196.0,1947.0,12597518.0,
1288.0,4017.0,2197.0,1943.0,12597522.0,
1288.0,4013.0,2196.0,1940.0,12597526.0,
1288.0,4015.0,2193.0,1941.0,12597530.0,
1289.0,4016.0,2195.0,1940.0,12597534.0,
1289.0,4015.0,2196.0,1938.0,12597538.0,
1288.0,4016.0,2200.0,1939.0,12597542.0,
1288.0,4014.0,2207.0,1937.0,12597546.0,
1289.0,4016.0,2210.0,1937.0,12597550.0,
1290.0,4013.0,2212.0,1930.0,12597554.0,
1288.0,4016.0,2217.0,1936.0,12597558.0,
1286.0,4015.0,2226.0,1933.0,12597561.0,
1288.0,4014.0,2232.0,1932.0,12597565.0,
1289.0,4017.0,2233.0,1932.0,12597569.0,
1291.0,4017.0,2237.0,1931.0,12597573.0,
1289.0,4014.0,2241.0,1928.0,12597577.0,
1289.0,4016.0,2246.0,1930.0,12597581.0,
1289.0,4015.0,2248.0,1927.0,12597585.0,
1290.0,4016.0,2250.0,1925.0,12597588.0,
1290.0,4013.0,2253.0,1925.0,12597592.0,
1290.0,4016.0,2254.0,1923.0,12597596.0,
1290.0,4016.0,2254.0,1925.0,12597600.0,
1290.0,4015.0,2252.0,1922.0,12597604.0,
1289.0,4016.0,2250.0,1923.0,12597608.0,
1289.0,4015.0,2253.0,1920.0,12597612.0,
1291.0,4016.0,2248.0,1921.0,12597616.0,
1289.0,4012.0,2248.0,1921.0,12597619.0,
1288.0,4014.0,2246.0,1917.0,12597623.0,
1289.0,4015.0,2245.0,1920.0,12597627.0,
1290.0,4016.0,2243.0,1920.0,12597631.0,
1290.0,4015.0,2238.0,1916.0,12597635.0,
1290.0,4017.0,2234.0,1918.0,12597639.0,
1288.0,4014.0,2232.0,1916.0,12597643.0,
1289.0,4016.0,2224.0,1919.0,12597646.0,
1290.0,4015.0,2221.0,1920.0,12597650.0,
1290.0,4016.0,2213.0,1916.0,12597654.0,
1289.0,4017.0,2205.0,1918.0,12597658.0,
1289.0,4016.0,2198.0,1915.0,12597662.0,
1289.0,4017.0,2187.0,1917.0,12597666.0,
1290.0,4016.0,2181.0,1919.0,12597670.0,
1290.0,4013.0,2170.0,1917.0,12597674.0,
1290.0,4016.0,2158.0,1919.0,12597678.0,
1288.0,4014.0,2151.0,1916.0,12597682.0,
1289.0,4016.0,2141.0,1919.0,12597686.0,
1290.0,4013.0,2131.0,1916.0,12597690.0,
1292.0,4016.0,2127.0,1917.0,12597694.0,
1289.0,4012.0,2120.0,1914.0,12597697.0,
1289.0,4014.0,2114.0,1913.0,12597701.0,
1289.0,4015.0,2105.0,1912.0,12597705.0,
1289.0,4017.0,2099.0,1913.0,12597709.0,
1293.0,4014.0,2096.0,1910.0,12597713.0,
1291.0,4017.0,2089.0,1908.0,12597717.0,
1288.0,4016.0,2084.0,1905.0,12597721.0,
1290.0,4017.0,2083.0,1904.0,12597725.0,
1289.0,4014.0,2083.0,1899.0,12597729.0,
1291.0,4017.0,2079.0,1898.0,12597733.0,
1290.0,4015.0,2080.0,1894.0,12597737.0,
1289.0,4017.0,2080.0,1893.0,12597741.0,
1288.0,4015.0,2080.0,1888.0,12597745.0,
1290.0,4016.0,2076.0,1887.0,12597749.0,
1290.0,4014.0,2077.0,1881.0,12597753.0,
1291.0,4016.0,2073.0,1881.0,12597756.0,
1289.0,4014.0,2075.0,1878.0,12597760.0,
1288.0,4015.0,2071.0,1877.0,12597764.0,
1289.0,4017.0,2069.0,1874.0,12597768.0,
1291.0,4011.0,2065.0,1867.0,12597772.0,
1290.0,4014.0,2061.0,1866.0,12597776.0,
1289.0,4014.0,2057.0,1865.0,12597780.0,
1289.0,4018.0,2052.0,1866.0,12597784.0,
1288.0,4014.0,2052.0,1865.0,12597788.0,
1291.0,4015.0,2048.0,1866.0,12597792.0,
1290.0,4014.0,2045.0,1865.0,12597796.0,
1289.0,4015.0,2039.0,1866.0,12597800.0,
1288.0,4014.0,2034.0,1865.0,12597803.0,
1289.0,4013.0,2029.0,1866.0,12597807.0,
1290.0,4016.0,2025.0,1868.0,12597811.0,
1290.0,4017.0,2018.0,1866.0,12597815.0,
1289.0,4014.0,2017.0,1862.0,12597819.0,
1289.0,4016.0,2013.0,1865.0,12597823.0,
1288.0,4015.0,2010.0,1862.0,12597827.0,
1290.0,4016.0,2005.0,1860.0,12597830.0,
1290.0,4017.0,2001.0,1862.0,12597835.0,
1289.0,4014.0,2002.0,1861.0,12597838.0,
1289.0,4014.0,2001.0,1860.0,12597842.0,
1289.0,4017.0,1998.0,1862.0,12597846.0,
1290.0,4017.0,1996.0,1864.0,12597850.0,
1290.0,4015.0,1998.0,1860.0,12597854.0,
1289.0,4016.0,1999.0,1860.0,12597858.0,
1289.0,4015.0,1998.0,1860.0,12597862.0,
1289.0,4017.0,1998.0,1861.0,12597866.0,
1290.0,4016.0,1998.0,1863.0,12597870.0,
1290.0,4014.0,1998.0,1865.0,12597874.0,
1290.0,4017.0,1996.0,1865.0,12597878.0,
1289.0,4013.0,1999.0,1867.0,12597882.0,
1289.0,4016.0,1993.0,1869.0,12597886.0,
1290.0,4013.0,1992.0,1874.0,12597889.0,
1292.0,4013.0,1989.0,1872.0,12597893.0,
1291.0,4016.0,1988.0,1879.0,12597897.0,
1289.0,4016.0,1987.0,1881.0,12597901.0,
1289.0,4014.0,1986.0,1885.0,12597905.0,
1290.0,4016.0,1985.0,1892.0,12597909.0,
1291.0,4016.0,1984.0,1895.0,12597913.0,
1291.0,4016.0,1986.0,1904.0,12597917.0,
1289.0,4015.0,1985.0,1911.0,12597920.0,
1288.0,4014.0,1985.0,1914.0,12597924.0,
1290.0,4016.0,1983.0,1920.0,12597928.0,
1290.0,4018.0,1984.0,1926.0,12597932.0,
1290.0,4014.0,1981.0,1932.0,12597936.0,
1289.0,4016.0,1980.0,1936.0,12597940.0,
1289.0,4016.0,1980.0,1947.0,12597944.0,
1289.0,4014.0,1981.0,1954.0,12597948.0,
1290.0,4015.0,1976.0,1966.0,12597952.0,
1291.0,4014.0,1980.0,1966.0,12597956.0,
1290.0,4017.0,1978.0,1975.0,12597959.0,
1290.0,4014.0,1979.0,1981.0,12597963.0,
1289.0,4018.0,1979.0,1989.0,12597967.0,
1291.0,4015.0,1980.0,1995.0,12597971.0,
1291.0,4016.0,1985.0,2003.0,12597975.0,
1291.0,4014.0,1989.0,2007.0,12597979.0,
1290.0,4016.0,1996.0,2015.0,12597983.0,
1290.0,4014.0,2007.0,2018.0,12597987.0,
1291.0,4017.0,2017.0,2026.0,12597990.0,
1292.0,4013.0,2027.0,2026.0,12597994.0,
1290.0,4015.0,2039.0,2033.0,12597998.0,
1290.0,4016.0,2052.0,2038.0,12598002.0,
1289.0,4015.0,2070.0,2038.0,12598006.0,
1290.0,4014.0,2090.0,2038.0,12598010.0,
1292.0,4016.0,2106.0,2037.0,12598014.0,
1290.0,4014.0,2128.0,2035.0,12598018.0,
1293.0,4017.0,2150.0,2037.0,12598021.0,
1289.0,4015.0,2172.0,2033.0,12598025.0,
1291.0,4015.0,2196.0,2032.0,12598029.0,
1292.0,4017.0,2222.0,2033.0,12598033.0,
1292.0,4015.0,2249.0,2032.0,12598037.0,
1290.0,4015.0,2276.0,2026.0,12598041.0,
1290.0,4016.0,2296.0,2027.0,12598045.0,
1291.0,4013.0,2327.0,2025.0,12598049.0,
1291.0,4017.0,2355.0,2023.0,12598053.0,
1292.0,4014.0,2382.0,2020.0,12598056.0,
1290.0,4015.0,2405.0,2017.0,12598060.0,
1289.0,4013.0,2428.0,2017.0,12598064.0,
1291.0,4016.0,2450.0,2014.0,12598068.0,
1292.0,4015.0,2471.0,2013.0,12598072.0,
1291.0,4016.0,2490.0,2013.0,12598076.0,
1291.0,4013.0,2508.0,2012.0,12598080.0,
1289.0,4016.0,2522.0,2011.0,12598084.0,
1291.0,4015.0,2540.0,2008.0,12598088.0,
1292.0,4016.0,2552.0,2006.0,12598091.0,
1291.0,4014.0,2560.0,2007.0,12598095.0,
1290.0,4016.0,2572.0,2003.0,12598099.0,
1290.0,4017.0,2579.0,2003.0,12598103.0,
1291.0,4016.0,2585.0,2001.0,12598107.0,
1291.0,4014.0,2589.0,2000.0,12598111.0,
1293.0,4017.0,2593.0,2000.0,12598115.0,
1291.0,4014.0,2594.0,1996.0,12598119.0,
1289.0,4017.0,2593.0,1994.0,12598123.0,
1290.0,4014.0,2590.0,1991.0,12598126.0,
1290.0,4015.0,2585.0,1991.0,12598130.0,
1292.0,4016.0,2581.0,1989.0,12598134.0,
1291.0,4014.0,2573.0,1984.0,12598138.0,
1290.0,4013.0,2563.0,1987.0,12598142.0,
1291.0,4016.0,2556.0,1986.0,12598146.0,
1293.0,4016.0,2544.0,1984.0,12598150.0,
1291.0,4014.0,2532.0,1983.0,12598154.0,
1291.0,4016.0,2522.0,1982.0,12598158.0,
1289.0,4014.0,2508.0,1982.0,12598162.0,
1290.0,4015.0,2500.0,1983.0,12598166.0,
1290.0,4015.0,2487.0,1981.0,12598170.0,
1292.0,4016.0,2477.0,1982.0,12598173.0,
1291.0,4015.0,2464.0,1977.0,12598177.0,
1290.0,4017.0,2452.0,1980.0,12598181.0,
1290.0,4014.0,2441.0,1975.0,12598185.0,
1291.0,4013.0,2430.0,1976.0,12598189.0,
1292.0,4013.0,2419.0,1974.0,12598193.0,
1291.0,4016.0,2406.0,1974.0,12598196.0,
1291.0,4013.0,2397.0,1973.0,12598200.0,
1291.0,4015.0,2384.0,1970.0,12598204.0,
1290.0,4016.0,2371.0,1974.0,12598208.0,
1292.0,4014.0,2359.0,1972.0,12598212.0,
1292.0,4017.0,2347.0,1975.0,12598216.0,
1291.0,4015.0,2338.0,1975.0,12598220.0,
1290.0,4016.0,2327.0,1976.0,12598224.0,
1291.0,4014.0,2316.0,1973.0,12598228.0,
1292.0,4016.0,2303.0,1973.0,12598232.0,
1292.0,4014.0,2294.0,1972.0,12598236.0,
1291.0,4017.0,2282.0,1977.0,12598239.0,
1290.0,4013.0,2274.0,1977.0,12598243.0,
1290.0,4015.0,2266.0,1976.0,12598247.0,
1292.0,4016.0,2259.0,1981.0,12598251.0,
1292.0,4015.0,2257.0,1977.0,12598255.0,
1291.0,4016.0,2249.0,1983.0,12598259.0,
1289.0,4015.0,2244.0,1979.0,12598263.0,
1291.0,4016.0,2241.0,1983.0,12598267.0,
1292.0,4015.0,2239.0,1983.0,12598271.0,
1292.0,4015.0,2238.0,1981.0,12598275.0,
1291.0,4013.0,2238.0,1979.0,12598279.0,
1290.0,4017.0,2235.0,1982.0,12598283.0,
1291.0,4014.0,2238.0,1978.0,12598287.0,
1292.0,4017.0,2237.0,1981.0,12598291.0,
1293.0,4014.0,2240.0,1977.0,12598295.0,
1291.0,4016.0,2241.0,1980.0,12598298.0,
1290.0,4015.0,2241.0,1975.0,12598302.0,
1290.0,4016.0,2246.0,1972.0,12598306.0,
1293.0,4015.0,2248.0,1969.0,12598310.0,
1293.0,4016.0,2251.0,1967.0,12598314.0,
1292.0,4015.0,2254.0,1960.0,12598318.0,
1291.0,4017.0,2259.0,1960.0,12598322.0,
1292.0,4014.0,2264.0,1956.0,12598325.0,
1292.0,4014.0,2266.0,1954.0,12598329.0,
1293.0,4015.0,2271.0,1952.0,12598334.0,
1293.0,4014.0,2270.0,1953.0,12598338.0,
1290.0,4013.0,2277.0,1948.0,12598341.0,
1291.0,4015.0,2278.0,1945.0,12598345.0,
1291.0,4017.0,2276.0,1945.0,12598349.0,
1292.0,4019.0,2275.0,1942.0,12598353.0,
1292.0,4015.0,2271.0,1938.0,12598357.0,
1290.0,4015.0,2271.0,1936.0,12598361.0,
1291.0,4016.0,2264.0,1934.0,12598365.0,
1291.0,4015.0,2261.0,1929.0,12598369.0,
1291.0,4016.0,2257.0,1930.0,12598373.0,
1292.0,4013.0,2252.0,1929.0,12598376.0,
1290.0,4017.0,2249.0,1926.0,12598380.0,
1291.0,4015.0,2242.0,1925.0,12598384.0,
1291.0,4017.0,2238.0,1925.0,12598388.0,
1292.0,4015.0,2231.0,1922.0,12598392.0,
1293.0,4017.0,2221.0,1919.0,12598396.0,
1291.0,4013.0,2219.0,1920.0,12598400.0,
1291.0,4017.0,2211.0,1919.0,12598403.0,
1292.0,4014.0,2207.0,1915.0,12598407.0,
1293.0,4016.0,2197.0,1916.0,12598411.0,
1292.0,4015.0,2186.0,1913.0,12598415.0,
1292.0,4015.0,2183.0,1912.0,12598419.0,
1291.0,4016.0,2174.0,1913.0,12598423.0,
1291.0,4014.0,2164.0,1913.0,12598427.0,
1292.0,4016.0,2155.0,1916.0,12598431.0,
1292.0,4015.0,2147.0,1912.0,12598435.0,
1292.0,4015.0,2136.0,1912.0,12598438.0,
1291.0,4015.0,2130.0,1913.0,12598442.0,
1290.0,4017.0,2121.0,1912.0,12598446.0,
1292.0,4016.0,2111.0,1915.0,12598450.0,
1292.0,4015.0,2107.0,1918.0,12598454.0,
1293.0,4016.0,2100.0,1921.0,12598458.0,
1290.0,4014.0,2096.0,1922.0,12598462.0,
1291.0,4017.0,2089.0,1926.0,12598466.0,
1292.0,4014.0,2083.0,1926.0,12598470.0,
1293.0,4016.0,2077.0,1929.0,12598474.0,
1292.0,4015.0,2068.0,1933.0,12598478.0,
1291.0,4017.0,2060.0,1938.0,12598482.0,
1290.0,4013.0,2054.0,1938.0,12598486.0,
1291.0,4017.0,2047.0,1940.0,12598490.0,
1292.0,4013.0,2040.0,1942.0,12598493.0,
1293.0,4014.0,2038.0,1940.0,12598497.0,
1291.0,4014.0,2032.0,1941.0,12598501.0,
1292.0,4016.0,2028.0,1945.0,12598505.0,
1291.0,4015.0,2020.0,1943.0,12598509.0,
1293.0,4015.0,2015.0,1940.0,12598513.0,
1293.0,4014.0,2012.0,1937.0,12598517.0,
1291.0,4016.0,2009.0,1935.0,12598521.0,
1291.0,4016.0,2005.0,1930.0,12598525.0,
1292.0,4015.0,2004.0,1932.0,12598529.0,
1293.0,4014.0,2001.0,1931.0,12598532.0,
1293.0,4014.0,1998.0,1926.0,12598536.0,
1292.0,4015.0,1993.0,1925.0,12598540.0,
1291.0,4017.0,1995.0,1925.0,12598544.0,
1292.0,4013.0,1996.0,1922.0,12598548.0,
1292.0,4017.0,1996.0,1923.0,12598552.0,
1292.0,4016.0,1999.0,1918.0,12598556.0,
1292.0,4014.0,2003.0,1915.0,12598560.0,
1291.0,4017.0,2000.0,1917.0,12598564.0,
1291.0,4014.0,2002.0,1915.0,12598568.0,
1293.0,4016.0,2002.0,1913.0,12598572.0,
1295.0,4015.0,2000.0,1908.0,12598576.0,
1292.0,4014.0,1999.0,1909.0,12598580.0,
1291.0,4017.0,2002.0,1909.0,12598583.0,
1292.0,4016.0,2000.0,1910.0,12598587.0,
1294.0,4017.0,2000.0,1910.0,12598591.0,
1294.0,4015.0,1994.0,1908.0,12598595.0,
1292.0,4016.0,1995.0,1910.0,12598599.0,
1291.0,4015.0,1992.0,1909.0,12598603.0,
1292.0,4017.0,1989.0,1909.0,12598606.0,
1293.0,4016.0,1990.0,1908.0,12598610.0,
1293.0,4014.0,1989.0,1910.0,12598614.0,
1293.0,4016.0,1989.0,1910.0,12598618.0,
1291.0,4016.0,1989.0,1907.0,12598622.0,
1293.0,4017.0,1988.0,1909.0,12598626.0,
1292.0,4015.0,1989.0,1908.0,12598630.0,
1293.0,4016.0,1989.0,1909.0,12598634.0,
1294.0,4014.0,1984.0,1908.0,12598638.0,
1292.0,4016.0,1983.0,1909.0,12598642.0,
1292.0,4014.0,1984.0,1911.0,12598645.0,
1293.0,4014.0,1983.0,1908.0,12598649.0,
1293.0,4015.0,1982.0,1906.0,12598653.0,
1295.0,4013.0,1981.0,1904.0,12598657.0,
1291.0,4016.0,1980.0,1907.0,12598661.0,
1292.0,4014.0,1981.0,1902.0,12598665.0,
1293.0,4016.0,1981.0,1909.0,12598669.0,
1293.0,4015.0,1982.0,1907.0,12598672.0,
1295.0,4015.0,1980.0,1911.0,12598676.0,
1292.0,4016.0,1974.0,1918.0,12598680.0,
1292.0,4017.0,1974.0,1915.0,12598684.0,
1293.0,4014.0,1971.0,1917.0,12598688.0,
1293.0,4017.0,1966.0,1919.0,12598692.0,
1293.0,4014.0,1964.0,1919.0,12598697.0,
1293.0,4016.0,1958.0,1925.0,12598701.0,
1292.0,4014.0,1954.0,1927.0,12598704.0,
1292.0,4016.0,1951.0,1930.0,12598708.0,
1295.0,4016.0,1946.0,1932.0,12598712.0,
1294.0,4014.0,1942.0,1936.0,12598716.0,
1293.0,4017.0,1938.0,1942.0,12598720.0,
1292.0,4015.0,1935.0,1946.0,12598724.0,
1292.0,4017.0,1933.0,1955.0,12598728.0,
1294.0,4012.0,1930.0,1960.0,12598732.0,
1295.0,4014.0,1930.0,1970.0,12598735.0,
1293.0,4016.0,1930.0,1977.0,12598739.0,
1293.0,4015.0,1930.0,1978.0,12598743.0,
1293.0,4016.0,1937.0,1989.0,12598747.0,
1294.0,4016.0,1940.0,1997.0,12598751.0,
1294.0,4014.0,1948.0,2000.0,12598755.0,
1294.0,4015.0,1953.0,2006.0,12598759.0,
1292.0,4014.0,1960.0,2009.0,12598763.0,
1293.0,4015.0,1969.0,2020.0,12598767.0,
1294.0,4014.0,1981.0,2022.0,12598770.0,
1294.0,4014.0,1993.0,2025.0,12598775.0,
1294.0,4017.0,2009.0,2028.0,12598779.0,
1292.0,4013.0,2026.0,2031.0,12598782.0,
1293.0,4012.0,2041.0,2031.0,12598786.0,
1295.0,4017.0,2060.0,2037.0,12598790.0,
1295.0,4014.0,2081.0,2042.0,12598794.0,
1294.0,4016.0,2102.0,2046.0,12598798.0,
1292.0,4014.0,2123.0,2049.0,12598802.0,
1293.0,4014.0,2146.0,2051.0,12598806.0,
1294.0,4014.0,2172.0,2053.0,12598810.0,
1294.0,4015.0,2196.0,2055.0,12598814.0,
1294.0,4013.0,2219.0,2054.0,12598817.0,
1294.0,4015.0,2245.0,2058.0,12598821.0,
1293.0,4016.0,2270.0,2057.0,12598825.0,
1294.0,4014.0,2297.0,2056.0,12598829.0,
1295.0,4016.0,2322.0,2059.0,12598833.0,
1294.0,4015.0,2346.0,2058.0,12598837.0,
1293.0,4014.0,2370.0,2060.0,12598841.0,
1293.0,4013.0,2391.0,2059.0,12598845.0,
1293.0,4014.0,2412.0,2058.0,12598848.0,
1295.0,4014.0,2431.0,2055.0,12598852.0,
1294.0,4016.0,2447.0,2055.0,12598856.0,
1294.0,4017.0,2459.0,2051.0,12598860.0,
1293.0,4014.0,2473.0,2044.0,12598864.0,
1293.0,4017.0,2484.0,2043.0,12598868.0,
1294.0,4015.0,2493.0,2040.0,12598872.0,
1295.0,4017.0,2501.0,2036.0,12598876.0,
1294.0,4016.0,2508.0,2036.0,12598879.0,
1292.0,4017.0,2511.0,2035.0,12598883.0,
1293.0,4016.0,2514.0,2031.0,12598887.0,
1296.0,4015.0,2518.0,2031.0,12598891.0,
1294.0,4016.0,2518.0,2030.0,12598895.0,
1293.0,4015.0,2514.0,2027.0,12598899.0,
1292.0,4015.0,2515.0,2020.0,12598903.0,
1292.0,4015.0,2514.0,2021.0,12598907.0,
1293.0,4017.0,2510.0,2019.0,12598911.0,
1293.0,4014.0,2509.0,2017.0,12598915.0,
1293.0,4014.0,2500.0,2016.0,12598919.0,
1292.0,4013.0,2499.0,2012.0,12598923.0,
1292.0,4017.0,2492.0,2014.0,12598926.0,
1293.0,4013.0,2485.0,2012.0,12598930.0,
1294.0,4017.0,2479.0,2012.0,12598934.0,
1294.0,4016.0,2471.0,2015.0,12598938.0,
1291.0,4016.0,2463.0,2013.0,12598942.0,
1292.0,4014.0,2456.0,2011.0,12598946.0,
1293.0,4017.0,2444.0,2012.0,12598950.0,
1293.0,4014.0,2435.0,2007.0,12598954.0,
1293.0,4016.0,2422.0,2009.0,12598958.0,
1292.0,4014.0,2418.0,2006.0,12598961.0,
1291.0,4017.0,2408.0,2008.0,12598965.0,
1292.0,4014.0,2400.0,2005.0,12598969.0,
1294.0,4015.0,2389.0,2008.0,12598973.0,
1293.0,4013.0,2380.0,2009.0,12598977.0,
1293.0,4016.0,2369.0,2012.0,12598981.0,
1293.0,4015.0,2358.0,2008.0,12598985.0,
1293.0,4017.0,2348.0,2012.0,12598989.0,
1293.0,4014.0,2333.0,2011.0,12598993.0,
1293.0,4014.0,2323.0,2014.0,12598997.0,
1292.0,4014.0,2310.0,2014.0,12599000.0,
1292.0,4014.0,2298.0,2016.0,12599004.0,
1292.0,4016.0,2288.0,2018.0,12599008.0,
1293.0,4013.0,2275.0,2018.0,12599012.0,
1294.0,4015.0,2263.0,2021.0,12599016.0,
1291.0,4014.0,2251.0,2021.0,12599020.0,
1292.0,4013.0,2238.0,2019.0,12599024.0,
1293.0,4018.0,2229.0,2020.0,12599028.0,
1293.0,4014.0,2219.0,2018.0,12599032.0,
1294.0,4015.0,2210.0,2014.0,12599036.0,
1293.0,4015.0,2202.0,2014.0,12599039.0,
1292.0,4014.0,2195.0,2010.0,12599043.0,
1292.0,4014.0,2181.0,2011.0,12599047.0,
1293.0,4016.0,2184.0,2010.0,12599051.0,
1294.0,4016.0,2180.0,2008.0,12599055.0,
1293.0,4014.0,2179.0,2005.0,12599059.0,
1291.0,4017.0,2178.0,2002.0,12599063.0,
1293.0,4015.0,2178.0,1999.0,12599067.0,
1295.0,4016.0,2175.0,2002.0,12599070.0,
1294.0,4014.0,2178.0,1996.0,12599074.0,
1295.0,4015.0,2176.0,1999.0,12599078.0,
1293.0,4014.0,2176.0,1997.0,12599082.0,
1292.0,4016.0,2177.0,1996.0,12599086.0,
1294.0,4016.0,2181.0,1992.0,12599090.0,
1295.0,4014.0,2180.0,1990.0,12599094.0,
1295.0,4017.0,2183.0,1990.0,12599098.0,
1293.0,4014.0,2183.0,1988.0,12599102.0,
1294.0,4016.0,2185.0,1987.0,12599106.0,
1294.0,4012.0,2187.0,1982.0,12599110.0,
1295.0,4015.0,2190.0,1985.0,12599113.0,
1296.0,4015.0,2191.0,1983.0,12599117.0,
1294.0,4018.0,2194.0,1978.0,12599121.0,
1294.0,4016.0,2196.0,1975.0,12599125.0,
1294.0,4014.0,2196.0,1973.0,12599129.0,
1296.0,4016.0,2198.0,1973.0,12599133.0,
1295.0,4013.0,2193.0,1972.0,12599137.0,
1294.0,4016.0,2192.0,1971.0,12599140.0,
1294.0,4014.0,2192.0,1968.0,12599144.0,
1295.0,4013.0,2190.0,1969.0,12599148.0,
1297.0,4014.0,2188.0,1968.0,12599152.0,
1295.0,4013.0,2188.0,1967.0,12599156.0,
1295.0,4016.0,2185.0,1965.0,12599160.0,
1294.0,4015.0,2184.0,1963.0,12599164.0,
1295.0,4013.0,2179.0,1963.0,12599168.0,
1296.0,4016.0,2176.0,1964.0,12599172.0,
1296.0,4015.0,2171.0,1961.0,12599176.0,
1295.0,4015.0,2163.0,1963.0,12599180.0,
1294.0,4015.0,2159.0,1956.0,12599184.0,
1294.0,4016.0,2148.0,1959.0,12599187.0,
1297.0,4014.0,2144.0,1957.0,12599191.0,
1297.0,4015.0,2136.0,1957.0,12599195.0,
1297.0,4013.0,2128.0,1956.0,12599199.0,
1295.0,4016.0,2115.0,1957.0,12599203.0,
1295.0,4015.0,2108.0,1955.0,12599207.0,
1297.0,4015.0,2101.0,1954.0,12599211.0,
1298.0,4015.0,2089.0,1956.0,12599215.0,
1298.0,4015.0,2083.0,1956.0,12599219.0,
1295.0,4016.0,2071.0,1956.0,12599223.0,
1296.0,4014.0,2064.0,1953.0,12599227.0,
1297.0,4016.0,2058.0,1957.0,12599231.0,
1298.0,4013.0,2049.0,1954.0,12599235.0,
1297.0,4016.0,2044.0,1958.0,12599239.0,
1295.0,4013.0,2039.0,1954.0,12599243.0,
1295.0,4018.0,2033.0,1958.0,12599246.0,
1297.0,4017.0,2027.0,1956.0,12599250.0,
1296.0,4013.0,2027.0,1954.0,12599254.0,
1297.0,4017.0,2022.0,1954.0,12599258.0,
1296.0,4017.0,2016.0,1951.0,12599262.0,
1297.0,4018.0,2015.0,1947.0,12599266.0,
1296.0,4016.0,2011.0,1944.0,12599270.0,
1297.0,4016.0,2005.0,1943.0,12599274.0,
1297.0,4013.0,2002.0,1941.0,12599278.0,
1298.0,4018.0,1995.0,1942.0,12599282.0,
1295.0,4013.0,1992.0,1940.0,12599286.0,
1297.0,4017.0,1989.0,1946.0,12599289.0,
1297.0,4014.0,1990.0,1947.0,12599293.0,
1297.0,4013.0,1986.0,1947.0,12599297.0,
1296.0,4016.0,1984.0,1950.0,12599301.0,
1295.0,4016.0,1980.0,1948.0,12599305.0,
1296.0,4015.0,1981.0,1945.0,12599309.0,
1298.0,4015.0,1977.0,1948.0,12599313.0,
1297.0,4014.0,1973.0,1946.0,12599317.0,
1297.0,4016.0,1970.0,1950.0,12599321.0,
1295.0,4015.0,1968.0,1946.0,12599325.0,
1296.0,4019.0,1966.0,1951.0,12599329.0,
1298.0,4013.0,1967.0,1952.0,12599333.0,
1298.0,4014.0,1964.0,1944.0,12599337.0,
1295.0,4016.0,1964.0,1946.0,12599341.0,
1296.0,4014.0,1963.0,1949.0,12599345.0,
1296.0,4016.0,1960.0,1946.0,12599349.0,
1297.0,4015.0,1957.0,1945.0,12599353.0,
1297.0,4017.0,1956.0,1941.0,12599357.0,
1296.0,4013.0,1951.0,1940.0,12599360.0,
1296.0,4015.0,1949.0,1935.0,12599364.0,
1296.0,4016.0,1944.0,1931.0,12599368.0,
1299.0,4015.0,1939.0,1930.0,12599372.0,
1297.0,4016.0,1935.0,1927.0,12599376.0,
1296.0,4015.0,1933.0,1928.0,12599380.0,
1296.0,4016.0,1929.0,1926.0,12599384.0,
1297.0,4014.0,1927.0,1925.0,12599388.0,
1298.0,4016.0,1923.0,1924.0,12599392.0,
1297.0,4014.0,1922.0,1920.0,12599396.0,
1298.0,4019.0,1921.0,1919.0,12599399.0,
1296.0,4014.0,1921.0,1916.0,12599403.0,
1298.0,4014.0,1919.0,1915.0,12599407.0,
1298.0,4014.0,1918.0,1913.0,12599411.0,
1300.0,4017.0,1920.0,1915.0,12599415.0,
1298.0,4013.0,1919.0,1910.0,12599419.0,
1296.0,4017.0,1919.0,1913.0,12599423.0,
1297.0,4016.0,1920.0,1912.0,12599427.0,
1298.0,4017.0,1922.0,1911.0,12599431.0,
1299.0,4015.0,1922.0,1912.0,12599435.0,
1297.0,4013.0,1919.0,1911.0,12599439.0,
1297.0,4015.0,1922.0,1913.0,12599443.0,
1297.0,4013.0,1920.0,1915.0,12599447.0,
1297.0,4018.0,1921.0,1916.0,12599450.0,
1297.0,4016.0,1922.0,1915.0,12599454.0,
1297.0,4017.0,1920.0,1913.0,12599458.0,
1298.0,4016.0,1919.0,1914.0,12599462.0,
1297.0,4014.0,1916.0,1914.0,12599466.0,
1298.0,4014.0,1914.0,1914.0,12599470.0,
1299.0,4016.0,1914.0,1916.0,12599474.0,
1298.0,4016.0,1912.0,1917.0,12599478.0,
1296.0,4016.0,1909.0,1921.0,12599482.0,
1297.0,4016.0,1906.0,1924.0,12599486.0,
1297.0,4014.0,1904.0,1929.0,12599490.0,
1298.0,4015.0,1901.0,1935.0,12599494.0,
1299.0,4015.0,1897.0,1943.0,12599497.0,
1297.0,4015.0,1893.0,1949.0,12599501.0,
1296.0,4013.0,1892.0,1954.0,12599505.0,
1296.0,4015.0,1892.0,1962.0,12599509.0,
1300.0,4017.0,1893.0,1966.0,12599513.0,
1298.0,4014.0,1891.0,1971.0,12599517.0,
1297.0,4017.0,1893.0,1982.0,12599521.0,
1296.0,4013.0,1893.0,1985.0,12599525.0,
1297.0,4016.0,1892.0,1994.0,12599529.0,
1298.0,4014.0,1896.0,2001.0,12599533.0,
1299.0,4017.0,1900.0,2009.0,12599537.0,
1298.0,4013.0,1904.0,2014.0,12599540.0,
1296.0,4013.0,1912.0,2018.0,12599544.0,
1296.0,4015.0,1921.0,2023.0,12599548.0,
1295.0,4018.0,1932.0,2029.0,12599552.0,
1298.0,4014.0,1942.0,2034.0,12599556.0,
1296.0,4014.0,1956.0,2037.0,12599560.0,
1296.0,4016.0,1977.0,2045.0,12599565.0,
1297.0,4013.0,1995.0,2048.0,12599569.0,
1297.0,4017.0,2012.0,2056.0,12599573.0,
1297.0,4013.0,2036.0,2056.0,12599577.0,
1297.0,4017.0,2056.0,2061.0,12599581.0,
1296.0,4016.0,2078.0,2065.0,12599584.0,
1296.0,4013.0,2102.0,2066.0,12599588.0,
1298.0,4016.0,2125.0,2068.0,12599592.0,
1297.0,4013.0,2147.0,2068.0,12599596.0,
1296.0,4013.0,2173.0,2071.0,12599600.0,
1295.0,4014.0,2196.0,2069.0,12599604.0,
1296.0,4015.0,2220.0,2071.0,12599608.0,
1296.0,4013.0,2245.0,2067.0,12599612.0,
1297.0,4015.0,2266.0,2065.0,12599616.0,
1297.0,4015.0,2286.0,2064.0,12599619.0,
1295.0,4017.0,2306.0,2064.0,12599623.0,
1295.0,4016.0,2323.0,2066.0,12599627.0,
1297.0,4016.0,2343.0,2067.0,12599631.0,
1296.0,4016.0,2354.0,2065.0,12599635.0,
1298.0,4017.0,2368.0,2067.0,12599639.0,
1295.0,4013.0,2383.0,2065.0,12599643.0,
1296.0,4016.0,2396.0,2068.0,12599647.0,
1297.0,4017.0,2403.0,2066.0,12599651.0,
1298.0,4016.0,2411.0,2066.0,12599655.0,
1297.0,4016.0,2415.0,2064.0,12599659.0,
1296.0,4016.0,2422.0,2066.0,12599662.0,
1296.0,4013.0,2423.0,2061.0,12599666.0,
1297.0,4016.0,2424.0,2066.0,12599670.0,
1297.0,4016.0,2427.0,2061.0,12599674.0,
1298.0,4014.0,2425.0,2061.0,12599678.0,
1296.0,4014.0,2426.0,2061.0,12599682.0,
1297.0,4014.0,2419.0,2058.0,12599686.0,
1297.0,4015.0,2418.0,2057.0,12599690.0,
1298.0,4012.0,2409.0,2055.0,12599694.0,
1298.0,4014.0,2404.0,2052.0,12599698.0,
1297.0,4015.0,2390.0,2048.0,12599702.0,
1296.0,4014.0,2384.0,2044.0,12599706.0,
1298.0,4014.0,2372.0,2045.0,12599710.0,
1298.0,4014.0,2364.0,2042.0,12599713.0,
1299.0,4015.0,2357.0,2041.0,12599717.0,
1297.0,4014.0,2349.0,2041.0,12599721.0,
1296.0,4017.0,2338.0,2041.0,12599725.0,
1297.0,4014.0,2328.0,2037.0,12599729.0,
1299.0,4015.0,2316.0,2038.0,12599733.0,
1300.0,4014.0,2304.0,2034.0,12599737.0,
1298.0,4017.0,2292.0,2033.0,12599741.0,
1297.0,4015.0,2277.0,2033.0,12599746.0,
1297.0,4016.0,2266.0,2031.0,12599749.0,
1298.0,4014.0,2255.0,2027.0,12599753.0,
1299.0,4013.0,2240.0,2024.0,12599757.0,
1298.0,4016.0,2227.0,2026.0,12599761.0,
1297.0,4015.0,2213.0,2024.0,12599765.0,
1298.0,4017.0,2198.0,2022.0,12599769.0,
1299.0,4015.0,2185.0,2017.0,12599773.0,
1299.0,4016.0,2170.0,2016.0,12599777.0,
1298.0,4017.0,2156.0,2015.0,12599781.0,
1296.0,4015.0,2144.0,2009.0,12599785.0,
1297.0,4016.0,2133.0,2008.0,12599789.0,
1299.0,4015.0,2123.0,2008.0,12599793.0,
1299.0,4017.0,2111.0,2009.0,12599797.0,
1297.0,4015.0,2106.0,2009.0,12599800.0,
1297.0,4013.0,2100.0,2009.0,12599804.0,
1298.0,4014.0,2094.0,2008.0,12599808.0,
1299.0,4016.0,2093.0,2006.0,12599812.0,
1299.0,4014.0,2088.0,2007.0,12599816.0,
1300.0,4015.0,2088.0,2007.0,12599820.0,
1297.0,4015.0,2088.0,2006.0,12599824.0,
1298.0,4018.0,2088.0,2006.0,12599828.0,
1297.0,4014.0,2086.0,2010.0,12599831.0,
1298.0,4015.0,2088.0,2011.0,12599835.0,
1299.0,4016.0,2088.0,2013.0,12599839.0,
1298.0,4017.0,2090.0,2012.0,12599843.0,
1297.0,4013.0,2093.0,2011.0,12599847.0,
1299.0,4016.0,2092.0,2012.0,12599851.0,
1299.0,4013.0,2088.0,2012.0,12599855.0,
1297.0,4017.0,2084.0,2016.0,12599859.0,
1297.0,4014.0,2081.0,2015.0,12599863.0,
1298.0,4016.0,2080.0,2019.0,12599866.0,
1299.0,4015.0,2075.0,2020.0,12599870.0,
1299.0,4016.0,2074.0,2022.0,12599874.0,
1300.0,4014.0,2071.0,2022.0,12599878.0,
1298.0,4016.0,2067.0,2025.0,12599882.0,
1297.0,4014.0,2064.0,2022.0,12599886.0,
1299.0,4015.0,2064.0,2024.0,12599890.0,
1299.0,4015.0,2062.0,2021.0,12599894.0,
1300.0,4016.0,2061.0,2020.0,12599898.0,
1298.0,4016.0,2060.0,2017.0,12599901.0,
1297.0,4017.0,2061.0,2019.0,12599905.0,
1298.0,4015.0,2060.0,2014.0,12599909.0,
1300.0,4014.0,2062.0,2010.0,12599913.0,
1300.0,4015.0,2062.0,2008.0,12599917.0,
1299.0,4016.0,2060.0,2005.0,12599921.0,
1298.0,4015.0,2058.0,2004.0,12599925.0,
1298.0,4016.0,2058.0,2003.0,12599929.0,
1300.0,4062.0,2054.0,2001.0,12599932.0,
1302.0,4014.0,2053.0,1996.0,12599936.0,
1300.0,4017.0,2053.0,2000.0,12599940.0,
1298.0,4013.0,2049.0,1992.0,12599944.0,
1300.0,4017.0,2047.0,1991.0,12599948.0,
1301.0,4015.0,2043.0,1987.0,12599952.0,
1302.0,4016.0,2038.0,1986.0,12599956.0,
1301.0,4015.0,2032.0,1979.0,12599960.0,
1299.0,4016.0,2024.0,1982.0,12599964.0,
1299.0,4013.0,2021.0,1974.0,12599968.0,
1300.0,4017.0,2017.0,1974.0,12599971.0,
1302.0,4015.0,2011.0,1969.0,12599975.0,
1301.0,4016.0,2007.0,1969.0,12599979.0,
1300.0,4017.0,2000.0,1967.0,12599983.0,
1301.0,4014.0,1994.0,1963.0,12599987.0,
1301.0,4017.0,1989.0,1962.0,12599991.0,
1302.0,4015.0,1985.0,1961.0,12599995.0,
1302.0,4016.0,1972.0,1959.0,12599999.0,
1299.0,4014.0,1970.0,1955.0,12600003.0,
1300.0,4017.0,1963.0,1954.0,12600006.0,
1301.0,4015.0,1956.0,1950.0,12600011.0,
1302.0,4017.0,1950.0,1949.0,12600014.0,
1302.0,4017.0,1945.0,1949.0,12600018.0,
1301.0,4014.0,1942.0,1943.0,12600022.0,
1301.0,4013.0,1940.0,1943.0,12600026.0,
1301.0,4017.0,1934.0,1941.0,12600031.0,
1302.0,4017.0,1933.0,1938.0,12600035.0,
1302.0,4014.0,1932.0,1935.0,12600039.0,
1301.0,4017.0,1927.0,1936.0,12600043.0,
1300.0,4015.0,1925.0,1936.0,12600047.0,
1301.0,4016.0,1922.0,1937.0,12600050.0,
1302.0,4017.0,1919.0,1940.0,12600054.0,
1301.0,4015.0,1917.0,1942.0,12600058.0,
1302.0,4014.0,1912.0,1940.0,12600062.0,
1300.0,4013.0,1910.0,1938.0,12600066.0,
1301.0,4014.0,1904.0,1938.0,12600070.0,
1301.0,4017.0,1903.0,1940.0,12600074.0,
1302.0,4014.0,1901.0,1936.0,12600078.0,
1301.0,4017.0,1897.0,1938.0,12600082.0,
1299.0,4014.0,1894.0,1936.0,12600086.0,
1300.0,4014.0,1892.0,1937.0,12600090.0,
1302.0,4016.0,1888.0,1937.0,12600094.0,
1302.0,4013.0,1888.0,1937.0,12600098.0,
1301.0,4017.0,1884.0,1937.0,12600102.0,
1299.0,4014.0,1877.0,1936.0,12600105.0,
1301.0,4014.0,1875.0,1937.0,12600109.0,
1302.0,4016.0,1870.0,1940.0,12600113.0,
1301.0,4017.0,1864.0,1943.0,12600117.0,
1301.0,4014.0,1859.0,1940.0,12600121.0,
1299.0,4013.0,1852.0,1943.0,12600125.0,
1301.0,4015.0,1846.0,1942.0,12600129.0,
1301.0,4017.0,1841.0,1946.0,12600133.0,
1302.0,4015.0,1836.0,1941.0,12600137.0,
1301.0,4016.0,1832.0,1944.0,12600141.0,
1301.0,4014.0,1831.0,1939.0,12600144.0,
1300.0,4014.0,1825.0,1938.0,12600148.0,
1301.0,4015.0,1825.0,1937.0,12600152.0,
1302.0,4016.0,1820.0,1935.0,12600156.0,
1301.0,4014.0,1816.0,1936.0,12600160.0,
1301.0,4015.0,1817.0,1932.0,12600164.0,
1300.0,4015.0,1816.0,1933.0,12600168.0,
1302.0,4018.0,1817.0,1934.0,12600172.0,
1303.0,4015.0,1814.0,1932.0,12600175.0,
1302.0,4014.0,1811.0,1931.0,12600179.0,
1300.0,4017.0,1812.0,1933.0,12600183.0,
1300.0,4014.0,1813.0,1929.0,12600187.0,
1302.0,4015.0,1812.0,1930.0,12600191.0,
1302.0,4017.0,1813.0,1935.0,12600195.0,
1301.0,4014.0,1814.0,1928.0,12600199.0,
1300.0,4016.0,1816.0,1932.0,12600203.0,
1301.0,4015.0,1815.0,1927.0,12600206.0,
1301.0,4013.0,1811.0,1929.0,12600211.0,
1302.0,4016.0,1809.0,1927.0,12600214.0,
1302.0,4016.0,1809.0,1931.0,12600218.0,
1300.0,4017.0,1810.0,1931.0,12600222.0,
1300.0,4014.0,1810.0,1931.0,12600226.0,
1301.0,4016.0,1807.0,1933.0,12600230.0,
1302.0,4014.0,1809.0,1933.0,12600234.0,
1302.0,4016.0,1809.0,1935.0,12600238.0,
1300.0,4015.0,1809.0,1934.0,12600241.0,
1299.0,4013.0,1811.0,1938.0,12600245.0,
1301.0,4016.0,1811.0,1941.0,12600249.0,
1302.0,4015.0,1814.0,1941.0,12600253.0,
1302.0,4017.0,1813.0,1946.0,12600257.0,
1302.0,4015.0,1819.0,1950.0,12600261.0,
1300.0,4016.0,1819.0,1955.0,12600265.0,
1300.0,4015.0,1819.0,1959.0,12600269.0,
1302.0,4017.0,1820.0,1967.0,12600273.0,
1302.0,4015.0,1822.0,1974.0,12600277.0,
1300.0,4017.0,1821.0,1983.0,12600281.0,
1301.0,4015.0,1822.0,1985.0,12600285.0,
1300.0,4016.0,1819.0,1995.0,12600288.0,
1302.0,4015.0,1822.0,1998.0,12600292.0,
1303.0,4016.0,1820.0,2008.0,12600296.0,
1301.0,4016.0,1823.0,2017.0,12600300.0,
1299.0,4014.0,1820.0,2026.0,12600304.0,
1302.0,4016.0,1822.0,2033.0,12600308.0,
1302.0,4015.0,1823.0,2044.0,12600312.0,
1303.0,4017.0,1826.0,2053.0,12600316.0,
1302.0,4013.0,1830.0,2062.0,12600319.0,
1301.0,4014.0,1833.0,2067.0,12600323.0,
1300.0,4016.0,1841.0,2076.0,12600327.0,
1302.0,4015.0,1850.0,2085.0,12600331.0,
1302.0,4015.0,1863.0,2091.0,12600335.0,
1302.0,4013.0,1874.0,2098.0,12600339.0,
1300.0,4016.0,1884.0,2103.0,12600343.0,
1300.0,4015.0,1898.0,2111.0,12600347.0,
1301.0,4016.0,1911.0,2114.0,12600351.0,
1301.0,4014.0,1926.0,2116.0,12600354.0,
1302.0,4016.0,1942.0,2119.0,12600358.0,
1300.0,4015.0,1960.0,2118.0,12600362.0,
1300.0,4016.0,1977.0,2121.0,12600366.0,
1300.0,4014.0,1995.0,2120.0,12600370.0,
1302.0,4014.0,2009.0,2120.0,12600374.0,
1301.0,4017.0,2025.0,2116.0,12600378.0,
1300.0,4015.0,2039.0,2119.0,12600382.0,
1299.0,4015.0,2059.0,2115.0,12600386.0,
1299.0,4015.0,2075.0,2117.0,12600390.0,
1301.0,4014.0,2090.0,2117.0,12600394.0,
1301.0,4014.0,2107.0,2120.0,12600398.0,
1300.0,4014.0,2121.0,2120.0,12600401.0,
1299.0,4015.0,2131.0,2122.0,12600405.0,
1299.0,4015.0,2140.0,2126.0,12600409.0,
1301.0,4018.0,2150.0,2125.0,12600413.0,
1301.0,4016.0,2160.0,2126.0,12600417.0,
1300.0,4017.0,2166.0,2126.0,12600421.0,
1299.0,4015.0,2172.0,2124.0,12600425.0,
1300.0,4017.0,2179.0,2123.0,12600428.0,
1299.0,4012.0,2183.0,2121.0,12600432.0,
1300.0,4015.0,2185.0,2120.0,12600436.0,
1301.0,4014.0,2186.0,2118.0,12600440.0,
1299.0,4018.0,2184.0,2117.0,12600444.0,
1298.0,4016.0,2181.0,2116.0,12600448.0,
1299.0,4017.0,2181.0,2114.0,12600452.0,
1301.0,4018.0,2177.0,2113.0,12600456.0,
1300.0,4017.0,2178.0,2113.0,12600460.0,
1299.0,4016.0,2176.0,2107.0,12600463.0,
1298.0,4014.0,2173.0,2104.0,12600467.0,
1300.0,4016.0,2169.0,2102.0,12600471.0,
1301.0,4015.0,2166.0,2094.0,12600475.0,
1300.0,4016.0,2162.0,2091.0,12600479.0,
1300.0,4016.0,2157.0,2088.0,12600483.0,
1300.0,4016.0,2153.0,2081.0,12600487.0,
1300.0,4016.0,2146.0,2077.0,12600491.0,
1301.0,4016.0,2142.0,2073.0,12600495.0,
1300.0,4017.0,2138.0,2070.0,12600499.0,
1300.0,4015.0,2133.0,2068.0,12600502.0,
1298.0,4014.0,2125.0,2061.0,12600506.0,
1300.0,4016.0,2118.0,2059.0,12600510.0,
1302.0,4017.0,2111.0,2055.0,12600514.0,
1301.0,4017.0,2105.0,2053.0,12600518.0,
1300.0,4018.0,2098.0,2051.0,12600522.0,
1299.0,4015.0,2091.0,2050.0,12600526.0,
1300.0,4016.0,2082.0,2047.0,12600530.0,
1301.0,4019.0,2071.0,2044.0,12600534.0,
1303.0,4014.0,2061.0,2040.0,12600538.0,
1300.0,4017.0,2050.0,2037.0,12600542.0,
1299.0,4015.0,2041.0,2032.0,12600546.0,
1300.0,4017.0,2030.0,2031.0,12600550.0,
1299.0,4015.0,2018.0,2028.0,12600554.0,
1301.0,4015.0,2012.0,2028.0,12600557.0,
1299.0,4017.0,2004.0,2030.0,12600562.0,
1299.0,4014.0,1994.0,2033.0,12600565.0,
1299.0,4013.0,1988.0,2034.0,12600569.0,
1299.0,4016.0,1983.0,2033.0,12600573.0,
1300.0,4013.0,1976.0,2037.0,12600579.0,
1300.0,4016.0,1973.0,2038.0,12600583.0,
1299.0,4016.0,1967.0,2040.0,12600587.0,
1299.0,4014.0,1962.0,2039.0,12600591.0,
1300.0,4018.0,1958.0,2041.0,12600595.0,
1300.0,4013.0,1956.0,2039.0,12600599.0,
1300.0,4017.0,1953.0,2042.0,12600603.0,
1299.0,4015.0,1951.0,2041.0,12600607.0,
1300.0,4016.0,1948.0,2044.0,12600611.0,
1301.0,4014.0,1948.0,2041.0,12600615.0,
1301.0,4017.0,1950.0,2043.0,12600618.0,
1300.0,4015.0,1950.0,2045.0,12600622.0,
1299.0,4016.0,1954.0,2046.0,12600626.0,
1300.0,4018.0,1955.0,2048.0,12600630.0,
1301.0,4017.0,1955.0,2050.0,12600634.0,
1301.0,4014.0,1953.0,2048.0,12600638.0,
1299.0,4017.0,1954.0,2051.0,12600642.0,
1299.0,4015.0,1955.0,2050.0,12600646.0,
1299.0,4015.0,1956.0,2050.0,12600650.0,
1301.0,4014.0,1957.0,2049.0,12600654.0,
1301.0,4016.0,1963.0,2050.0,12600657.0,
1300.0,4016.0,1960.0,2045.0,12600661.0,
1300.0,4017.0,1963.0,2048.0,12600665.0,
1299.0,4017.0,1963.0,2046.0,12600669.0,
1301.0,4015.0,1963.0,2044.0,12600673.0,
1302.0,4016.0,1962.0,2045.0,12600677.0,
1300.0,4015.0,1962.0,2043.0,12600681.0,
1300.0,4017.0,1958.0,2045.0,12600685.0,
1299.0,4014.0,1951.0,2042.0,12600688.0,
1301.0,4014.0,1952.0,2043.0,12600692.0,
1300.0,4013.0,1948.0,2035.0,12600697.0,
1300.0,4016.0,1943.0,2033.0,12600700.0,
1299.0,4016.0,1941.0,2033.0,12600704.0,
1300.0,4014.0,1940.0,2030.0,12600708.0,
1301.0,4013.0,1936.0,2028.0,12600713.0,
1301.0,4015.0,1931.0,2030.0,12600717.0,
1301.0,4013.0,1926.0,2027.0,12600721.0,
1299.0,4017.0,1926.0,2029.0,12600725.0,
1303.0,4015.0,1925.0,2029.0,12600728.0,
1301.0,4015.0,1923.0,2029.0,12600732.0,
1300.0,4016.0,1917.0,2029.0,12600736.0,
1300.0,4015.0,1915.0,2028.0,12600740.0,
1299.0,4014.0,1914.0,2026.0,12600744.0,
1299.0,4017.0,1909.0,2026.0,12600748.0,
1300.0,4014.0,1909.0,2021.0,12600752.0,
1301.0,4018.0,1906.0,2020.0,12600756.0,
1301.0,4014.0,1903.0,2017.0,12600760.0,
1299.0,4017.0,1900.0,2019.0,12600764.0,
1298.0,4015.0,1898.0,2015.0,12600767.0,
1299.0,4017.0,1897.0,2019.0,12600771.0,
1301.0,4013.0,1890.0,2014.0,12600775.0,
1300.0,4018.0,1885.0,2015.0,12600779.0,
1299.0,4014.0,1882.0,2014.0,12600783.0,
1298.0,4017.0,1879.0,2011.0,12600787.0,
1299.0,4014.0,1876.0,2011.0,12600791.0,
1301.0,4016.0,1871.0,2008.0,12600795.0,
1299.0,4014.0,1866.0,2007.0,12600799.0,
1299.0,4016.0,1861.0,2006.0,12600802.0,
1298.0,4015.0,1857.0,2003.0,12600806.0,
1299.0,4016.0,1855.0,2002.0,12600810.0,
1299.0,4016.0,1854.0,2001.0,12600814.0,
1301.0,4015.0,1850.0,1999.0,12600818.0,
1299.0,4017.0,1848.0,1999.0,12600822.0,
1298.0,4015.0,1848.0,1995.0,12600826.0,
1299.0,4017.0,1843.0,1994.0,12600830.0,
1300.0,4014.0,1842.0,1992.0,12600834.0,
1300.0,4016.0,1838.0,1993.0,12600838.0,
1298.0,4014.0,1837.0,1993.0,12600842.0,
1297.0,4016.0,1834.0,1994.0,12600846.0,
1298.0,4013.0,1832.0,1992.0,12600850.0,
1300.0,4016.0,1831.0,1995.0,12600853.0,
1300.0,4014.0,1829.0,1994.0,12600857.0,
1298.0,4017.0,1828.0,1995.0,12600861.0,
1297.0,4016.0,1829.0,1995.0,12600865.0,
1298.0,4013.0,1831.0,1993.0,12600869.0,
1299.0,4017.0,1834.0,1997.0,12600873.0,
1300.0,4014.0,1831.0,1991.0,12600877.0,
1299.0,4017.0,1832.0,1994.0,12600881.0,
1298.0,4013.0,1831.0,1992.0,12600884.0,
1299.0,4015.0,1829.0,1993.0,12600888.0,
1300.0,4015.0,1827.0,1993.0,12600892.0,
1299.0,4015.0,1824.0,1989.0,12600896.0,
1298.0,4014.0,1824.0,1985.0,12600900.0,
1297.0,4015.0,1821.0,1982.0,12600904.0,
1298.0,4015.0,1821.0,1980.0,12600908.0,
1299.0,4016.0,1820.0,1977.0,12600912.0,
1300.0,4017.0,1821.0,1972.0,12600916.0,
1300.0,4015.0,1822.0,1968.0,12600920.0,
1298.0,4016.0,1822.0,1963.0,12600924.0,
1298.0,4014.0,1821.0,1959.0,12600928.0,
1300.0,4016.0,1816.0,1958.0,12600932.0,
1301.0,4015.0,1814.0,1954.0,12600936.0,
1300.0,4016.0,1810.0,1957.0,12600940.0,
1298.0,4014.0,1806.0,1950.0,12600943.0,
1298.0,4018.0,1803.0,1949.0,12600947.0,
1299.0,4015.0,1803.0,1951.0,12600951.0,
1300.0,4017.0,1801.0,1949.0,12600955.0,
1299.0,4015.0,1800.0,1949.0,12600959.0,
1300.0,4018.0,1796.0,1955.0,12600963.0,
1299.0,4015.0,1796.0,1958.0,12600967.0,
1300.0,4017.0,1792.0,1959.0,12600971.0,
1300.0,4015.0,1791.0,1959.0,12600975.0,
1301.0,4017.0,1786.0,1964.0,12600978.0,
1301.0,4015.0,1783.0,1967.0,12600982.0,
1299.0,4014.0,1779.0,1966.0,12600986.0,
1302.0,4014.0,1780.0,1966.0,12600990.0,
1301.0,4017.0,1776.0,1963.0,12600994.0,
1302.0,4014.0,1777.0,1963.0,12600998.0,
1301.0,4017.0,1774.0,1964.0,12601002.0,
1299.0,4015.0,1777.0,1963.0,12601006.0,
1300.0,4015.0,1779.0,1961.0,12601009.0,
1301.0,4014.0,1777.0,1964.0,12601013.0,
1301.0,4016.0,1777.0,1964.0,12601018.0,
1301.0,4016.0,1779.0,1966.0,12601022.0,
1300.0,4014.0,1779.0,1965.0,12601026.0,
1300.0,4013.0,1778.0,1969.0,12601030.0,
1301.0,4017.0,1780.0,1970.0,12601034.0,
1301.0,4013.0,1780.0,1973.0,12601038.0,
1300.0,4016.0,1780.0,1979.0,12601042.0,
1300.0,4015.0,1782.0,1981.0,12601045.0,
1301.0,4015.0,1779.0,1987.0,12601049.0,
1301.0,4016.0,1776.0,1996.0,12601053.0,
1302.0,4016.0,1776.0,1999.0,12601057.0,
1301.0,4014.0,1775.0,2007.0,12601061.0,
1300.0,4016.0,1771.0,2017.0,12601065.0,
1299.0,4014.0,1770.0,2021.0,12601069.0,
1301.0,4017.0,1769.0,2029.0,12601072.0,
1301.0,4015.0,1768.0,2035.0,12601076.0,
1302.0,4017.0,1766.0,2046.0,12601080.0,
1299.0,4014.0,1767.0,2058.0,12601084.0,
1300.0,4015.0,1766.0,2064.0,12601088.0,
1301.0,4017.0,1767.0,2072.0,12601092.0,
1301.0,4014.0,1765.0,2081.0,12601096.0,
1300.0,4017.0,1769.0,2093.0,12601100.0,
1299.0,4015.0,1773.0,2099.0,12601104.0,
1299.0,4013.0,1778.0,2105.0,12601108.0,
1300.0,4017.0,1781.0,2117.0,12601112.0,
1301.0,4014.0,1787.0,2122.0,12601116.0,
1301.0,4016.0,1798.0,2128.0,12601120.0,
1300.0,4015.0,1804.0,2134.0,12601124.0,
1299.0,4017.0,1814.0,2136.0,12601128.0,
1299.0,4014.0,1824.0,2140.0,12601131.0,
1299.0,4016.0,1832.0,2143.0,12601135.0,
1301.0,4017.0,1844.0,2146.0,12601139.0,
1298.0,4015.0,1855.0,2146.0,12601143.0,
1297.0,4016.0,1873.0,2147.0,12601147.0,
1299.0,4016.0,1887.0,2152.0,12601151.0,
1300.0,4015.0,1904.0,2150.0,12601155.0,
1301.0,4017.0,1918.0,2155.0,12601158.0,
1300.0,4015.0,1933.0,2153.0,12601162.0,
1298.0,4014.0,1946.0,2154.0,12601166.0,
1300.0,4014.0,1959.0,2155.0,12601170.0,
1301.0,4015.0,1975.0,2157.0,12601174.0,
1301.0,4016.0,1988.0,2162.0,12601178.0,
1300.0,4016.0,2003.0,2163.0,12601182.0,
1298.0,4014.0,2018.0,2160.0,12601186.0,
1298.0,4014.0,2030.0,2164.0,12601190.0,
1300.0,4014.0,2044.0,2166.0,12601194.0,
1300.0,4015.0,2058.0,2164.0,12601198.0,
1299.0,4014.0,2069.0,2167.0,12601202.0,
1299.0,4014.0,2083.0,2168.0,12601206.0,
1299.0,4014.0,2097.0,2168.0,12601210.0,
1300.0,4014.0,2105.0,2171.0,12601214.0,
1301.0,4014.0,2115.0,2171.0,12601217.0,
1300.0,4017.0,2118.0,2170.0,12601221.0,
1300.0,4014.0,2124.0,2168.0,12601225.0,
1300.0,4014.0,2128.0,2164.0,12601229.0,
1300.0,4017.0,2133.0,2164.0,12601233.0,
1302.0,4015.0,2133.0,2164.0,12601237.0,
1300.0,4016.0,2136.0,2163.0,12601241.0,
1298.0,4016.0,2135.0,2160.0,12601245.0,
1298.0,4016.0,2135.0,2156.0,12601248.0,
1300.0,4014.0,2137.0,2154.0,12601252.0,
1301.0,4015.0,2132.0,2152.0,12601256.0,
1301.0,4017.0,2127.0,2150.0,12601260.0,
1300.0,4016.0,2124.0,2147.0,12601264.0,
1299.0,4016.0,2122.0,2142.0,12601268.0,
1299.0,4017.0,2115.0,2141.0,12601272.0,
1301.0,4016.0,2109.0,2137.0,12601276.0,
1301.0,4016.0,2103.0,2134.0,12601279.0,
1299.0,4017.0,2097.0,2130.0,12601283.0,
1298.0,4017.0,2087.0,2125.0,12601287.0,
1300.0,4014.0,2084.0,2123.0,12601291.0,
1301.0,4014.0,2077.0,2114.0,12601295.0,
1300.0,4015.0,2070.0,2110.0,12601299.0,
1299.0,4015.0,2065.0,2109.0,12601303.0,
1297.0,4014.0,2056.0,2105.0,12601307.0,
1299.0,4014.0,2052.0,2106.0,12601310.0,
1300.0,4013.0,2044.0,2104.0,12601314.0,
1301.0,4017.0,2038.0,2106.0,12601318.0,
1300.0,4017.0,2030.0,2110.0,12601322.0,
1298.0,4015.0,2027.0,2107.0,12601326.0,
1299.0,4014.0,2023.0,2104.0,12601330.0,
1301.0,4014.0,2017.0,2104.0,12601334.0,
1300.0,4017.0,2015.0,2105.0,12601338.0,
1299.0,4014.0,2012.0,2109.0,12601342.0,
1300.0,4018.0,2011.0,2107.0,12601346.0,
1299.0,4015.0,2010.0,2104.0,12601350.0,
1302.0,4016.0,2010.0,2107.0,12601354.0,
1302.0,4013.0,2009.0,2105.0,12601358.0,
1300.0,4016.0,2009.0,2106.0,12601362.0,
1298.0,4013.0,2007.0,2106.0,12601366.0,
1299.0,4017.0,2007.0,2107.0,12601370.0,
1299.0,4015.0,2007.0,2104.0,12601373.0,
1301.0,4015.0,2004.0,2107.0,12601377.0,
1300.0,4016.0,2001.0,2106.0,12601381.0,
1302.0,4016.0,1995.0,2107.0,12601385.0,
1300.0,4014.0,1992.0,2103.0,12601389.0,
1301.0,4016.0,1989.0,2105.0,12601393.0,
1302.0,4013.0,1986.0,2105.0,12601397.0,
1301.0,4015.0,1979.0,2106.0,12601400.0,
1299.0,4015.0,1976.0,2101.0,12601404.0,
1299.0,4014.0,1974.0,2103.0,12601408.0,
1301.0,4017.0,1974.0,2101.0,12601412.0,
1301.0,4015.0,1971.0,2101.0,12601416.0,
1301.0,4014.0,1972.0,2099.0,12601420.0,
1300.0,4015.0,1972.0,2100.0,12601424.0,
1299.0,4016.0,1973.0,2094.0,12601428.0,
1300.0,4016.0,1973.0,2093.0,12601432.0,
1301.0,4014.0,1973.0,2091.0,12601436.0,
1302.0,4017.0,1971.0,2087.0,12601439.0,
1299.0,4013.0,1970.0,2080.0,12601443.0,
1299.0,4015.0,1967.0,2075.0,12601447.0,
1301.0,4015.0,1964.0,2074.0,12601451.0,
1301.0,4016.0,1960.0,2073.0,12601455.0,
1302.0,4017.0,1956.0,2067.0,12601459.0,
1299.0,4015.0,1959.0,2066.0,12601463.0,
1299.0,4014.0,1956.0,2059.0,12601467.0,
1299.0,4016.0,1953.0,2059.0,12601471.0,
1300.0,4016.0,1952.0,2053.0,12601474.0,
1301.0,4015.0,1952.0,2054.0,12601478.0,
1299.0,4016.0,1953.0,2052.0,12601482.0,
1300.0,4015.0,1954.0,2053.0,12601486.0,
1301.0,4016.0,1953.0,2056.0,12601490.0,
1300.0,4014.0,1951.0,2056.0,12601494.0,
1300.0,4016.0,1951.0,2057.0,12601498.0,
1301.0,4015.0,1949.0,2060.0,12601502.0,
1298.0,4016.0,1943.0,2060.0,12601505.0,
1299.0,4013.0,1945.0,2058.0,12601509.0,
1300.0,4017.0,1938.0,2059.0,12601513.0,
1300.0,4013.0,1942.0,2060.0,12601517.0,
1300.0,4016.0,1941.0,2059.0,12601521.0,
1298.0,4015.0,1943.0,2058.0,12601525.0,
1298.0,4016.0,1943.0,2061.0,12601529.0,
1299.0,4015.0,1947.0,2060.0,12601533.0,
1300.0,4017.0,1949.0,2059.0,12601537.0,
1301.0,4014.0,1952.0,2056.0,12601540.0,
1298.0,4014.0,1951.0,2056.0,12601545.0,
1298.0,4016.0,1954.0,2057.0,12601549.0,
1300.0,4014.0,1955.0,2052.0,12601553.0,
1300.0,4017.0,1954.0,2051.0,12601556.0,
1300.0,4014.0,1953.0,2050.0,12601560.0,
1299.0,4016.0,1955.0,2052.0,12601564.0,
1298.0,4014.0,1954.0,2050.0,12601568.0,
1297.0,4017.0,1954.0,2052.0,12601572.0,
1299.0,4016.0,1951.0,2052.0,12601576.0,
1300.0,4016.0,1951.0,2052.0,12601582.0,
1298.0,4016.0,1948.0,2052.0,12601586.0,
1298.0,4018.0,1947.0,2053.0,12601590.0,
1298.0,4014.0,1946.0,2052.0,12601594.0,
1299.0,4016.0,1944.0,2055.0,12601598.0,
1299.0,4014.0,1942.0,2055.0,12601601.0,
1297.0,4017.0,1937.0,2056.0,12601605.0,
1298.0,4014.0,1936.0,2055.0,12601609.0,
1299.0,4016.0,1932.0,2056.0,12601613.0,
1299.0,4014.0,1931.0,2052.0,12601617.0,
1300.0,4016.0,1928.0,2058.0,12601621.0,
1298.0,4014.0,1926.0,2056.0,12601624.0,
1298.0,4013.0,1919.0,2053.0,12601628.0,
1299.0,4016.0,1915.0,2053.0,12601632.0,
1299.0,4017.0,1911.0,2049.0,12601636.0,
1299.0,4014.0,1906.0,2045.0,12601640.0,
1298.0,4016.0,1897.0,2045.0,12601644.0,
1297.0,4015.0,1895.0,2044.0,12601648.0,
1299.0,4017.0,1888.0,2042.0,12601652.0,
1300.0,4013.0,1886.0,2040.0,12601656.0,
1300.0,4016.0,1879.0,2041.0,12601659.0,
1298.0,4015.0,1874.0,2037.0,12601663.0,
1299.0,4017.0,1866.0,2037.0,12601667.0,
1299.0,4016.0,1862.0,2036.0,12601671.0,
1300.0,4015.0,1855.0,2039.0,12601675.0,
1300.0,4013.0,1850.0,2033.0,12601679.0,
1299.0,4016.0,1849.0,2040.0,12601683.0,
1298.0,4012.0,1845.0,2032.0,12601687.0,
1299.0,4017.0,1844.0,2034.0,12601690.0,
1300.0,4013.0,1843.0,2032.0,12601694.0,
1301.0,4016.0,1838.0,2028.0,12601698.0,
1299.0,4016.0,1843.0,2028.0,12601702.0,
1299.0,4017.0,1842.0,2023.0,12601706.0,
1299.0,4014.0,1846.0,2020.0,12601710.0,
1301.0,4017.0,1851.0,2023.0,12601714.0,
1301.0,4015.0,1856.0,2017.0,12601718.0,
1301.0,4015.0,1859.0,2015.0,12601722.0,
1300.0,4014.0,1864.0,2012.0,12601726.0,
1300.0,4017.0,1866.0,2012.0,12601730.0,
1300.0,4014.0,1872.0,2009.0,12601733.0,
1303.0,4017.0,1870.0,2004.0,12601737.0,
1301.0,4014.0,1872.0,2001.0,12601741.0,
1299.0,4017.0,1869.0,2002.0,12601745.0,
1300.0,4014.0,1872.0,1999.0,12601749.0,
1302.0,4016.0,1869.0,1998.0,12601753.0,
1301.0,4014.0,1871.0,1993.0,12601757.0,
1302.0,4017.0,1871.0,1996.0,12601760.0,
1301.0,4013.0,1873.0,1996.0,12601764.0,
1300.0,4015.0,1870.0,1991.0,12601768.0,
1301.0,4016.0,1874.0,1994.0,12601772.0,
1303.0,4015.0,1872.0,1991.0,12601776.0,
1303.0,4015.0,1874.0,1990.0,12601780.0,
1301.0,4013.0,1874.0,1988.0,12601784.0,
1300.0,4014.0,1874.0,1988.0,12601787.0,
1301.0,4014.0,1873.0,1986.0,12601791.0,
1302.0,4017.0,1873.0,1982.0,12601795.0,
1303.0,4017.0,1873.0,1980.0,12601799.0,
1301.0,4014.0,1875.0,1977.0,12601803.0,
1301.0,4016.0,1873.0,1978.0,12601807.0,
1301.0,4014.0,1875.0,1972.0,12601811.0,
1302.0,4016.0,1872.0,1973.0,12601815.0,
1303.0,4012.0,1872.0,1973.0,12601818.0,
1302.0,4014.0,1871.0,1970.0,12601822.0,
1300.0,4014.0,1866.0,1968.0,12601828.0,
1302.0,4016.0,1864.0,1972.0,12601832.0,
1303.0,4014.0,1862.0,1974.0,12601836.0,
1303.0,4018.0,1861.0,1978.0,12601840.0,
1301.0,4014.0,1860.0,1983.0,12601844.0,
1300.0,4016.0,1859.0,1990.0,12601848.0,
1301.0,4015.0,1862.0,1996.0,12601851.0,
1303.0,4016.0,1857.0,2004.0,12601855.0,
1302.0,4016.0,1857.0,2017.0,12601859.0,
1301.0,4016.0,1855.0,2027.0,12601863.0,
1301.0,4016.0,1851.0,2041.0,12601867.0,
1301.0,4016.0,1846.0,2049.0,12601871.0,
1302.0,4016.0,1842.0,2062.0,12601875.0,
1303.0,4015.0,1839.0,2074.0,12601878.0,
1300.0,4014.0,1836.0,2087.0,12601882.0,
1301.0,4017.0,1835.0,2098.0,12601886.0,
1301.0,4016.0,1837.0,2112.0,12601890.0,
1302.0,4014.0,1837.0,2123.0,12601894.0,
1302.0,4018.0,1844.0,2135.0,12601898.0,
1302.0,4014.0,1847.0,2142.0,12601902.0,
1300.0,4016.0,1855.0,2156.0,12601906.0,
1300.0,4016.0,1857.0,2165.0,12601910.0,
1301.0,4016.0,1866.0,2175.0,12601914.0,
1302.0,4014.0,1872.0,2180.0,12601918.0,
1301.0,4016.0,1880.0,2189.0,12601922.0,
1299.0,4014.0,1890.0,2198.0,12601926.0,
1300.0,4017.0,1896.0,2205.0,12601929.0,
1301.0,4015.0,1910.0,2213.0,12601933.0,
1301.0,4017.0,1921.0,2219.0,12601937.0,
1301.0,4014.0,1935.0,2220.0,12601941.0,
1300.0,4016.0,1948.0,2229.0,12601945.0,
1299.0,4014.0,1963.0,2228.0,12601949.0,
1300.0,4016.0,1981.0,2234.0,12601953.0,
1302.0,4014.0,1995.0,2234.0,12601957.0,
1301.0,4015.0,2010.0,2236.0,12601961.0,
1299.0,4014.0,2031.0,2237.0,12601965.0,
1300.0,4016.0,2051.0,2239.0,12601969.0,
1300.0,4015.0,2066.0,2236.0,12601973.0,
1301.0,4015.0,2085.0,2238.0,12601977.0,
1301.0,4015.0,2095.0,2238.0,12601981.0,
1299.0,4013.0,2107.0,2237.0,12601985.0,
1300.0,4016.0,2121.0,2238.0,12601989.0,
1300.0,4014.0,2134.0,2238.0,12601993.0,
1301.0,4014.0,2145.0,2239.0,12601996.0,
1301.0,4016.0,2153.0,2235.0,12602000.0,
1299.0,4014.0,2163.0,2237.0,12602004.0,
1299.0,4016.0,2169.0,2235.0,12602008.0,
1300.0,4016.0,2170.0,2233.0,12602012.0,
1301.0,4016.0,2180.0,2227.0,12602016.0,
1302.0,4016.0,2184.0,2225.0,12602020.0,
1300.0,4016.0,2184.0,2225.0,12602024.0,
1300.0,4014.0,2184.0,2219.0,12602029.0,
1300.0,4015.0,2185.0,2214.0,12602033.0,
1302.0,4017.0,2181.0,2212.0,12602037.0,
1301.0,4016.0,2176.0,2206.0,12602041.0,
1300.0,4015.0,2176.0,2203.0,12602045.0,
1301.0,4016.0,2171.0,2198.0,12602049.0,
1301.0,4015.0,2167.0,2197.0,12602052.0,
1302.0,4014.0,2168.0,2194.0,12602056.0,
1302.0,4016.0,2161.0,2189.0,12602060.0,
1300.0,4016.0,2160.0,2185.0,12602064.0,
1299.0,4015.0,2158.0,2183.0,12602068.0,
1301.0,4015.0,2157.0,2178.0,12602072.0,
1301.0,4013.0,2153.0,2171.0,12602076.0,
1302.0,4016.0,2152.0,2172.0,12602080.0,
1301.0,4017.0,2150.0,2171.0,12602084.0,
1300.0,4016.0,2148.0,2169.0,12602088.0,
1301.0,4017.0,2142.0,2165.0,12602092.0,
1303.0,4016.0,2139.0,2162.0,12602096.0,
1303.0,4017.0,2126.0,2161.0,12602100.0,
1301.0,4017.0,2123.0,2159.0,12602103.0,
1301.0,4014.0,2115.0,2152.0,12602107.0,
1301.0,4015.0,2107.0,2150.0,12602111.0,
1302.0,4016.0,2095.0,2153.0,12602115.0,
1302.0,4015.0,2089.0,2150.0,12602119.0,
1301.0,4015.0,2081.0,2147.0,12602123.0,
1300.0,4015.0,2075.0,2147.0,12602127.0,
1300.0,4014.0,2070.0,2147.0,12602131.0,
1303.0,4015.0,2062.0,2149.0,12602135.0,
1303.0,4014.0,2056.0,2146.0,12602138.0,
1302.0,4013.0,2056.0,2148.0,12602142.0,
1301.0,4017.0,2050.0,2148.0,12602146.0,
1302.0,4014.0,2047.0,2147.0,12602150.0,
1303.0,4017.0,2042.0,2151.0,12602154.0,
1305.0,4015.0,2039.0,2151.0,12602158.0,
1303.0,4016.0,2038.0,2151.0,12602162.0,
1302.0,4014.0,2036.0,2150.0,12602166.0,
1302.0,4015.0,2031.0,2147.0,12602170.0,
1303.0,4017.0,2029.0,2149.0,12602174.0,
1303.0,4015.0,2029.0,2144.0,12602178.0,
1303.0,4017.0,2028.0,2149.0,12602182.0,
1301.0,4013.0,2024.0,2149.0,12602186.0,
1302.0,4016.0,2023.0,2150.0,12602189.0,
1303.0,4017.0,2023.0,2149.0,12602193.0,
1303.0,4016.0,2020.0,2150.0,12602197.0,
1303.0,4014.0,2019.0,2149.0,12602201.0,
1301.0,4018.0,2020.0,2150.0,12602205.0,
1301.0,4015.0,2019.0,2152.0,12602209.0,
1302.0,4014.0,2022.0,2150.0,12602213.0,
1303.0,4016.0,2023.0,2149.0,12602217.0,
1303.0,4014.0,2022.0,2149.0,12602221.0,
1301.0,4016.0,2023.0,2149.0,12602225.0,
1301.0,4016.0,2026.0,2147.0,12602228.0,
1302.0,4017.0,2024.0,2149.0,12602232.0,
1303.0,4014.0,2025.0,2147.0,12602236.0,
1302.0,4017.0,2027.0,2147.0,12602240.0,
1300.0,4017.0,2026.0,2143.0,12602244.0,
1300.0,4017.0,2028.0,2141.0,12602248.0,
1301.0,4016.0,2029.0,2134.0,12602252.0,
1302.0,4013.0,2027.0,2134.0,12602256.0,
1302.0,4015.0,2027.0,2133.0,12602260.0,
1301.0,4014.0,2032.0,2127.0,12602264.0,
1301.0,4015.0,2028.0,2124.0,12602268.0,
1300.0,4014.0,2030.0,2122.0,12602272.0,
1302.0,4016.0,2030.0,2120.0,12602275.0,
1301.0,4017.0,2030.0,2114.0,12602279.0,
1300.0,4015.0,2029.0,2112.0,12602283.0,
1300.0,4017.0,2029.0,2107.0,12602287.0,
1300.0,4016.0,2027.0,2104.0,12602291.0,
1301.0,4014.0,2025.0,2102.0,12602295.0,
1302.0,4017.0,2024.0,2097.0,12602299.0,
1301.0,4013.0,2024.0,2098.0,12602303.0,
1299.0,4017.0,2024.0,2094.0,12602307.0,
1300.0,4014.0,2025.0,2091.0,12602311.0,
1301.0,4018.0,2024.0,2089.0,12602315.0,
1300.0,4015.0,2021.0,2083.0,12602318.0,
1300.0,4016.0,2016.0,2080.0,12602322.0,
1300.0,4017.0,2013.0,2076.0,12602326.0,
1300.0,4014.0,2010.0,2072.0,12602330.0,
1301.0,4017.0,2003.0,2069.0,12602334.0,
1301.0,4014.0,2000.0,2063.0,12602339.0,
1300.0,4017.0,1993.0,2061.0,12602342.0,
1299.0,4013.0,1990.0,2057.0,12602346.0,
1299.0,4016.0,1988.0,2055.0,12602350.0,
1300.0,4017.0,1986.0,2054.0,12602354.0,
1301.0,4017.0,1983.0,2053.0,12602358.0,
1300.0,4015.0,1980.0,2054.0,12602362.0,
1299.0,4016.0,1976.0,2055.0,12602366.0,
1299.0,4014.0,1972.0,2052.0,12602370.0,
1300.0,4017.0,1966.0,2055.0,12602374.0,
1301.0,4015.0,1965.0,2052.0,12602377.0,
1299.0,4014.0,1958.0,2051.0,12602381.0,
1299.0,4015.0,1955.0,2049.0,12602385.0,
1298.0,4017.0,1953.0,2046.0,12602389.0,
1302.0,4014.0,1951.0,2046.0,12602393.0,
1300.0,4016.0,1949.0,2041.0,12602397.0,
1301.0,4016.0,1949.0,2042.0,12602401.0,
1299.0,4015.0,1949.0,2038.0,12602405.0,
1297.0,4017.0,1954.0,2039.0,12602409.0,
1299.0,4014.0,1950.0,2036.0,12602413.0,
1301.0,4017.0,1950.0,2038.0,12602417.0,
1300.0,4014.0,1950.0,2036.0,12602421.0,
1299.0,4016.0,1950.0,2036.0,12602424.0,
1297.0,4014.0,1949.0,2032.0,12602428.0,
1299.0,4015.0,1951.0,2033.0,12602433.0,
1299.0,4017.0,1951.0,2027.0,12602437.0,
1299.0,4015.0,1950.0,2027.0,12602441.0,
1298.0,4016.0,1949.0,2028.0,12602445.0,
1298.0,4017.0,1946.0,2028.0,12602449.0,
1299.0,4013.0,1945.0,2026.0,12602452.0,
1300.0,4016.0,1943.0,2027.0,12602456.0,
1299.0,4015.0,1940.0,2027.0,12602460.0,
1299.0,4018.0,1937.0,2028.0,12602464.0,
1297.0,4017.0,1935.0,2026.0,12602468.0,
1298.0,4015.0,1930.0,2023.0,12602472.0,
1299.0,4018.0,1929.0,2021.0,12602476.0,
1299.0,4014.0,1927.0,2017.0,12602480.0,
1298.0,4018.0,1922.0,2016.0,12602483.0,
1298.0,4017.0,1919.0,2014.0,12602487.0,
1299.0,4014.0,1916.0,2014.0,12602491.0,
1299.0,4016.0,1909.0,2014.0,12602495.0,
1299.0,4015.0,1904.0,2012.0,12602499.0,
1298.0,4015.0,1904.0,2014.0,12602503.0,
1296.0,4016.0,1898.0,2012.0,12602507.0,
1298.0,4015.0,1897.0,2011.0,12602511.0,
1299.0,4017.0,1894.0,2011.0,12602514.0,
1299.0,4016.0,1896.0,2011.0,12602518.0,
1299.0,4013.0,1895.0,2012.0,12602522.0,
1297.0,4014.0,1897.0,2012.0,12602526.0,
1297.0,4017.0,1895.0,2017.0,12602530.0,
1298.0,4013.0,1894.0,2016.0,12602534.0,
1299.0,4016.0,1895.0,2015.0,12602538.0,
1299.0,4014.0,1896.0,2014.0,12602541.0,
1297.0,4015.0,1896.0,2012.0,12602545.0,
1298.0,4016.0,1894.0,2014.0,12602549.0,
1298.0,4017.0,1891.0,2012.0,12602553.0,
1299.0,4016.0,1892.0,2010.0,12602557.0,
1297.0,4015.0,1890.0,2005.0,12602561.0,
1298.0,4018.0,1888.0,2005.0,12602565.0,
1297.0,4015.0,1887.0,1999.0,12602569.0,
1298.0,4016.0,1888.0,2000.0,12602572.0,
1299.0,4013.0,1889.0,1996.0,12602576.0,
1299.0,4014.0,1886.0,1996.0,12602580.0,
1298.0,4016.0,1888.0,2001.0,12602584.0,
1297.0,4014.0,1889.0,1999.0,12602588.0,
1299.0,4018.0,1890.0,2000.0,12602592.0,
1300.0,4014.0,1888.0,2000.0,12602597.0,
1300.0,4014.0,1886.0,2002.0,12602601.0,
1298.0,4016.0,1886.0,2002.0,12602605.0,
1298.0,4017.0,1886.0,2004.0,12602609.0,
1298.0,4015.0,1885.0,2005.0,12602613.0,
1298.0,4014.0,1883.0,2008.0,12602617.0,
1300.0,4016.0,1880.0,2008.0,12602621.0,
1298.0,4014.0,1875.0,2011.0,12602625.0,
1295.0,4016.0,1871.0,2014.0,12602628.0,
1298.0,4017.0,1870.0,2020.0,12602632.0,
1300.0,4016.0,1866.0,2025.0,12602636.0,
1299.0,4017.0,1863.0,2031.0,12602641.0,
1297.0,4014.0,1860.0,2039.0,12602645.0,
1298.0,4017.0,1856.0,2048.0,12602649.0,
1298.0,4015.0,1855.0,2060.0,12602653.0,
1299.0,4016.0,1852.0,2074.0,12602657.0,
1299.0,4014.0,1847.0,2084.0,12602661.0,
1298.0,4016.0,1844.0,2102.0,12602665.0,
1297.0,4014.0,1843.0,2114.0,12602668.0,
1298.0,4015.0,1843.0,2130.0,12602672.0,
1299.0,4017.0,1843.0,2142.0,12602676.0,
1299.0,4016.0,1846.0,2158.0,12602680.0,
1297.0,4014.0,1849.0,2170.0,12602684.0,
1298.0,4016.0,1853.0,2184.0,12602688.0,
1298.0,4013.0,1861.0,2198.0,12602692.0,
1300.0,4016.0,1868.0,2210.0,12602695.0,
1299.0,4014.0,1877.0,2227.0,12602700.0,
1299.0,4017.0,1886.0,2241.0,12602704.0,
1298.0,4015.0,1896.0,2248.0,12602708.0,
1298.0,4012.0,1904.0,2255.0,12602711.0,
1299.0,4014.0,1914.0,2262.0,12602716.0,
1299.0,4016.0,1921.0,2271.0,12602719.0,
1300.0,4017.0,1930.0,2277.0,12602723.0,
1298.0,4014.0,1945.0,2282.0,12602727.0,
1298.0,4015.0,1959.0,2288.0,12602731.0,
1299.0,4017.0,1971.0,2296.0,12602735.0,
1300.0,4013.0,1986.0,2302.0,12602739.0,
1300.0,4017.0,2004.0,2306.0,12602743.0,
1297.0,4013.0,2020.0,2306.0,12602747.0,
1298.0,4016.0,2039.0,2312.0,12602751.0,
1299.0,4015.0,2055.0,2315.0,12602755.0,
1300.0,4015.0,2070.0,2315.0,12602759.0,
1299.0,4016.0,2082.0,2314.0,12602762.0,
1298.0,4014.0,2094.0,2310.0,12602767.0,
1298.0,4014.0,2109.0,2311.0,12602770.0,
1300.0,4014.0,2118.0,2309.0,12602775.0,
1300.0,4014.0,2128.0,2306.0,12602778.0,
1299.0,4014.0,2138.0,2308.0,12602782.0,
1298.0,4017.0,2149.0,2310.0,12602786.0,
1298.0,4018.0,2155.0,2309.0,12602790.0,
1299.0,4017.0,2162.0,2307.0,12602794.0,
1300.0,4016.0,2166.0,2306.0,12602798.0,
1299.0,4016.0,2169.0,2303.0,12602802.0,
1299.0,4017.0,2175.0,2300.0,12602805.0,
1297.0,4015.0,2179.0,2296.0,12602809.0,
1300.0,4015.0,2181.0,2292.0,12602813.0,
1299.0,4015.0,2183.0,2288.0,12602817.0,
1300.0,4018.0,2186.0,2287.0,12602821.0,
1298.0,4017.0,2188.0,2283.0,12602825.0,
1297.0,4017.0,2186.0,2280.0,12602829.0,
1299.0,4017.0,2186.0,2277.0,12602833.0,
1300.0,4018.0,2184.0,2274.0,12602837.0,
1300.0,4017.0,2183.0,2269.0,12602841.0,
1298.0,4016.0,2180.0,2265.0,12602845.0,
1297.0,4016.0,2176.0,2261.0,12602848.0,
1299.0,4015.0,2175.0,2257.0,12602852.0,
1299.0,4013.0,2174.0,2251.0,12602856.0,
1299.0,4015.0,2169.0,2247.0,12602860.0,
1298.0,4013.0,2164.0,2242.0,12602864.0,
1298.0,4014.0,2162.0,2236.0,12602868.0,
1298.0,4015.0,2159.0,2235.0,12602872.0,
1298.0,4014.0,2155.0,2231.0,12602876.0,
1300.0,4014.0,2151.0,2230.0,12602879.0,
1297.0,4014.0,2144.0,2227.0,12602883.0,
1297.0,4015.0,2139.0,2226.0,12602887.0,
1298.0,4015.0,2134.0,2228.0,12602891.0,
1299.0,4014.0,2130.0,2225.0,12602895.0,
1300.0,4015.0,2125.0,2224.0,12602899.0,
1299.0,4014.0,2121.0,2223.0,12602902.0,
1297.0,4016.0,2118.0,2223.0,12602906.0,
1298.0,4014.0,2115.0,2222.0,12602910.0,
1299.0,4017.0,2107.0,2223.0,12602914.0,
1297.0,4015.0,2099.0,2221.0,12602918.0,
1299.0,4014.0,2097.0,2219.0,12602922.0,
1298.0,4014.0,2091.0,2218.0,12602926.0,
1297.0,4015.0,2086.0,2215.0,12602930.0,
1297.0,4015.0,2080.0,2217.0,12602933.0,
1299.0,4012.0,2071.0,2215.0,12602938.0,
1298.0,4014.0,2065.0,2213.0,12602942.0,
1297.0,4014.0,2062.0,2214.0,12602945.0,
1297.0,4014.0,2055.0,2210.0,12602950.0,
1298.0,4017.0,2052.0,2209.0,12602954.0,
1300.0,4016.0,2048.0,2208.0,12602958.0,
1299.0,4014.0,2047.0,2205.0,12602962.0,
1297.0,4016.0,2047.0,2204.0,12602966.0,
1297.0,4016.0,2046.0,2201.0,12602970.0,
1298.0,4017.0,2048.0,2199.0,12602974.0,
1299.0,4016.0,2048.0,2198.0,12602977.0,
1299.0,4013.0,2049.0,2196.0,12602981.0,
1297.0,4017.0,2050.0,2197.0,12602985.0,
1298.0,4016.0,2050.0,2195.0,12602989.0,
1299.0,4014.0,2052.0,2191.0,12602993.0,
1299.0,4014.0,2050.0,2193.0,12602997.0,
1300.0,4014.0,2055.0,2191.0,12603001.0,
1298.0,4014.0,2055.0,2190.0,12603005.0,
1297.0,4014.0,2057.0,2186.0,12603009.0,
1298.0,4014.0,2057.0,2182.0,12603012.0,
1300.0,4017.0,2056.0,2184.0,12603016.0,
1298.0,4015.0,2056.0,2183.0,12603020.0,
1297.0,4014.0,2056.0,2181.0,12603025.0,
1297.0,4015.0,2058.0,2178.0,12603028.0,
1298.0,4014.0,2059.0,2177.0,12603032.0,
1299.0,4014.0,2063.0,2177.0,12603036.0,
1299.0,4017.0,2061.0,2179.0,12603040.0,
1298.0,4013.0,2059.0,2176.0,12603044.0,
1297.0,4014.0,2056.0,2174.0,12603048.0,
1297.0,4013.0,2055.0,2174.0,12603052.0,
1298.0,4015.0,2053.0,2175.0,12603056.0,
1300.0,4015.0,2052.0,2173.0,12603059.0,
1298.0,4014.0,2052.0,2170.0,12603063.0,
1296.0,4016.0,2046.0,2169.0,12603067.0,
1297.0,4018.0,2048.0,2164.0,12603071.0,
1298.0,4016.0,2044.0,2164.0,12603075.0,
1299.0,4013.0,2040.0,2157.0,12603079.0,
1298.0,4016.0,2037.0,2157.0,12603083.0,
1297.0,4015.0,2032.0,2152.0,12603087.0,
1297.0,4016.0,2027.0,2149.0,12603091.0,
1299.0,4012.0,2024.0,2144.0,12603094.0,
1299.0,4013.0,2020.0,2136.0,12603098.0,
1298.0,4017.0,2016.0,2132.0,12603102.0,
1298.0,4017.0,2010.0,2129.0,12603106.0,
1297.0,4017.0,2007.0,2124.0,12603110.0,
1298.0,4014.0,2002.0,2119.0,12603114.0,
1298.0,4016.0,2000.0,2114.0,12603118.0,
1298.0,4015.0,1997.0,2110.0,12603122.0,
1298.0,4016.0,1995.0,2107.0,12603126.0,
1297.0,4015.0,1995.0,2099.0,12603130.0,
1299.0,4017.0,1996.0,2095.0,12603133.0,
1299.0,4015.0,1993.0,2089.0,12603137.0,
1299.0,4017.0,1991.0,2090.0,12603141.0,
1298.0,4015.0,1990.0,2085.0,12603145.0,
1297.0,4015.0,1988.0,2085.0,12603149.0,
1297.0,4016.0,1984.0,2086.0,12603153.0,
1299.0,4014.0,1983.0,2085.0,12603157.0,
1298.0,4016.0,1979.0,2087.0,12603161.0,
1298.0,4015.0,1979.0,2085.0,12603164.0,
1296.0,4015.0,1975.0,2085.0,12603168.0,
1298.0,4017.0,1969.0,2087.0,12603172.0,
1298.0,4017.0,1967.0,2088.0,12603176.0,
1298.0,4014.0,1965.0,2085.0,12603180.0,
1298.0,4017.0,1959.0,2086.0,12603184.0,
1297.0,4014.0,1962.0,2086.0,12603188.0,
1297.0,4016.0,1956.0,2085.0,12603192.0,
1298.0,4013.0,1956.0,2085.0,12603195.0,
1299.0,4014.0,1957.0,2083.0,12603199.0,
1298.0,4016.0,1954.0,2083.0,12603203.0,
1296.0,4017.0,1950.0,2078.0,12603207.0,
1298.0,4016.0,1949.0,2075.0,12603211.0,
1298.0,4017.0,1947.0,2074.0,12603215.0,
1299.0,4012.0,1942.0,2071.0,12603218.0,
1298.0,4016.0,1941.0,2069.0,12603222.0,
1297.0,4015.0,1939.0,2069.0,12603226.0,
1296.0,4017.0,1936.0,2069.0,12603230.0,
1298.0,4015.0,1936.0,2065.0,12603234.0,
1298.0,4017.0,1929.0,2066.0,12603238.0,
1297.0,4017.0,1930.0,2067.0,12603242.0,
1296.0,4016.0,1932.0,2059.0,12603246.0,
1297.0,4018.0,1931.0,2062.0,12603250.0,
1298.0,4015.0,1932.0,2060.0,12603254.0,
1298.0,4018.0,1932.0,2064.0,12603258.0,
1298.0,4013.0,1934.0,2061.0,12603261.0,
1297.0,4016.0,1935.0,2059.0,12603265.0,
1296.0,4015.0,1933.0,2058.0,12603269.0,
1298.0,4017.0,1934.0,2059.0,12603273.0,
1299.0,4015.0,1932.0,2057.0,12603277.0,
1298.0,4016.0,1927.0,2059.0,12603281.0,
1297.0,4013.0,1921.0,2056.0,12603285.0,
1297.0,4016.0,1922.0,2058.0,12603289.0,
1296.0,4015.0,1918.0,2052.0,12603293.0,
1298.0,4016.0,1918.0,2054.0,12603297.0,
1298.0,4014.0,1915.0,2055.0,12603301.0,
1296.0,4017.0,1916.0,2052.0,12603305.0,
1297.0,4015.0,1913.0,2050.0,12603308.0,
1297.0,4014.0,1913.0,2049.0,12603312.0,
1298.0,4016.0,1909.0,2049.0,12603316.0,
1298.0,4016.0,1910.0,2048.0,12603320.0,
1298.0,4012.0,1908.0,2046.0,12603324.0,
1296.0,4016.0,1906.0,2043.0,12603328.0,
1297.0,4014.0,1906.0,2039.0,12603332.0,
1297.0,4017.0,1907.0,2043.0,12603336.0,
1298.0,4015.0,1906.0,2037.0,12603339.0,
1298.0,4014.0,1903.0,2035.0,12603343.0,
1296.0,4015.0,1904.0,2036.0,12603347.0,
1297.0,4015.0,1903.0,2027.0,12603351.0,
1298.0,4016.0,1902.0,2028.0,12603355.0,
1298.0,4015.0,1903.0,2023.0,12603359.0,
1297.0,4016.0,1908.0,2022.0,12603363.0,
1296.0,4014.0,1907.0,2018.0,12603367.0,
1296.0,4017.0,1909.0,2014.0,12603370.0,
1297.0,4017.0,1909.0,2015.0,12603375.0,
1299.0,4014.0,1910.0,2012.0,12603378.0,
1297.0,4015.0,1912.0,2009.0,12603382.0,
1297.0,4015.0,1912.0,2006.0,12603386.0,
1296.0,4017.0,1907.0,2009.0,12603390.0,
1297.0,4014.0,1907.0,2007.0,12603394.0,
1298.0,4017.0,1905.0,2008.0,12603398.0,
1297.0,4014.0,1904.0,2009.0,12603402.0,
1296.0,4017.0,1901.0,2014.0,12603405.0,
1295.0,4014.0,1902.0,2013.0,12603409.0,
1297.0,4015.0,1899.0,2019.0,12603413.0,
1298.0,4016.0,1897.0,2020.0,12603417.0,
1298.0,4014.0,1900.0,2023.0,12603421.0,
1296.0,4016.0,1895.0,2028.0,12603425.0,
1295.0,4013.0,1895.0,2032.0,12603429.0,
1296.0,4017.0,1893.0,2042.0,12603433.0,
1297.0,4014.0,1893.0,2049.0,12603437.0,
1297.0,4017.0,1890.0,2057.0,12603441.0,
1297.0,4015.0,1888.0,2067.0,12603444.0,
1296.0,4015.0,1887.0,2081.0,12603448.0,
1297.0,4017.0,1886.0,2093.0,12603452.0,
1296.0,4017.0,1882.0,2105.0,12603456.0,
1298.0,4015.0,1881.0,2124.0,12603460.0,
1297.0,4013.0,1880.0,2139.0,12603464.0,
1296.0,4016.0,1878.0,2157.0,12603468.0,
1297.0,4016.0,1881.0,2175.0,12603472.0,
1297.0,4015.0,1881.0,2193.0,12603476.0,
1297.0,4014.0,1882.0,2210.0,12603480.0,
1297.0,4015.0,1885.0,2229.0,12603484.0,
1295.0,4014.0,1891.0,2245.0,12603488.0,
1296.0,4017.0,1895.0,2267.0,12603492.0,
1297.0,4013.0,1901.0,2283.0,12603496.0,
1297.0,4017.0,1910.0,2298.0,12603500.0,
1297.0,4014.0,1917.0,2313.0,12603503.0,
1296.0,4017.0,1925.0,2327.0,12603507.0,
1296.0,4017.0,1935.0,2339.0,12603511.0,
1298.0,4018.0,1947.0,2349.0,12603515.0,
1298.0,4015.0,1962.0,2359.0,12603519.0,
1297.0,4015.0,1973.0,2367.0,12603523.0,
1296.0,4017.0,1984.0,2376.0,12603527.0,
1296.0,4017.0,1999.0,2386.0,12603531.0,
1297.0,4014.0,2014.0,2393.0,12603535.0,
1298.0,4017.0,2034.0,2404.0,12603539.0,
1297.0,4014.0,2046.0,2405.0,12603543.0,
1296.0,4017.0,2064.0,2410.0,12603547.0,
1296.0,4018.0,2079.0,2414.0,12603550.0,
1297.0,4014.0,2095.0,2416.0,12603554.0,
1298.0,4017.0,2112.0,2420.0,12603558.0,
1297.0,4016.0,2130.0,2422.0,12603562.0,
1296.0,4014.0,2147.0,2419.0,12603566.0,
1296.0,4017.0,2156.0,2419.0,12603570.0,
1296.0,4017.0,2167.0,2421.0,12603574.0,
1298.0,4016.0,2179.0,2419.0,12603578.0,
1298.0,4017.0,2186.0,2417.0,12603582.0,
1296.0,4017.0,2197.0,2413.0,12603586.0,
1295.0,4017.0,2207.0,2410.0,12603589.0,
1297.0,4013.0,2215.0,2405.0,12603593.0,
1297.0,4016.0,2222.0,2402.0,12603597.0,
1298.0,4018.0,2227.0,2396.0,12603601.0,
1296.0,4014.0,2231.0,2386.0,12603605.0,
1296.0,4014.0,2237.0,2378.0,12603610.0,
1296.0,4014.0,2241.0,2373.0,12603615.0,
1298.0,4014.0,2242.0,2361.0,12603619.0,
1295.0,4014.0,2245.0,2356.0,12603623.0,
1296.0,4013.0,2243.0,2350.0,12603627.0,
1296.0,4014.0,2242.0,2346.0,12603631.0,
1296.0,4015.0,2242.0,2338.0,12603635.0,
1297.0,4014.0,2241.0,2332.0,12603638.0,
1300.0,4016.0,2239.0,2329.0,12603642.0,
1295.0,4013.0,2237.0,2321.0,12603646.0,
1296.0,4016.0,2236.0,2314.0,12603650.0,
1297.0,4014.0,2231.0,2308.0,12603654.0,
1298.0,4017.0,2229.0,2301.0,12603658.0,
1298.0,4015.0,2225.0,2295.0,12603662.0,
1296.0,4017.0,2221.0,2287.0,12603666.0,
1296.0,4017.0,2218.0,2279.0,12603670.0,
1297.0,4017.0,2208.0,2272.0,12603674.0,
1297.0,4016.0,2202.0,2266.0,12603677.0,
1297.0,4015.0,2199.0,2259.0,12603681.0,
1296.0,4016.0,2194.0,2255.0,12603685.0,
1296.0,4015.0,2190.0,2253.0,12603689.0,
1297.0,4014.0,2185.0,2249.0,12603693.0,
1297.0,4015.0,2183.0,2245.0,12603697.0,
1298.0,4014.0,2180.0,2243.0,12603701.0,
1296.0,4015.0,2179.0,2241.0,12603705.0,
1295.0,4013.0,2173.0,2240.0,12603709.0,
1297.0,4013.0,2171.0,2239.0,12603713.0,
1297.0,4014.0,2165.0,2237.0,12603717.0,
1297.0,4015.0,2163.0,2235.0,12603721.0,
1296.0,4015.0,2157.0,2237.0,12603725.0,
1296.0,4014.0,2154.0,2238.0,12603728.0,
1296.0,4014.0,2148.0,2240.0,12603732.0,
1297.0,4017.0,2144.0,2237.0,12603736.0,
1294.0,4014.0,2137.0,2235.0,12603740.0,
1297.0,4017.0,2133.0,2240.0,12603744.0,
1296.0,4015.0,2128.0,2238.0,12603748.0,
1296.0,4017.0,2124.0,2241.0,12603752.0,
1297.0,4017.0,2124.0,2242.0,12603756.0,
1298.0,4017.0,2120.0,2245.0,12603760.0,
1297.0,4017.0,2114.0,2244.0,12603764.0,
1295.0,4017.0,2113.0,2245.0,12603768.0,
1294.0,4014.0,2110.0,2241.0,12603772.0,
1297.0,4013.0,2107.0,2241.0,12603777.0,
1297.0,4015.0,2103.0,2242.0,12603780.0,
1296.0,4017.0,2102.0,2241.0,12603784.0,
1296.0,4017.0,2103.0,2239.0,12603788.0,
1298.0,4015.0,2100.0,2236.0,12603792.0,
1297.0,4013.0,2100.0,2235.0,12603796.0,
1296.0,4015.0,2100.0,2233.0,12603800.0,
1297.0,4013.0,2097.0,2234.0,12603804.0,
1295.0,4014.0,2097.0,2232.0,12603807.0,
1294.0,4017.0,2100.0,2233.0,12603811.0,
1297.0,4016.0,2099.0,2230.0,12603815.0,
1297.0,4015.0,2102.0,2226.0,12603819.0,
1297.0,4014.0,2104.0,2228.0,12603823.0,
1295.0,4015.0,2104.0,2227.0,12603827.0,
1296.0,4015.0,2105.0,2228.0,12603831.0,
1297.0,4015.0,2107.0,2223.0,12603835.0,
1297.0,4015.0,2107.0,2220.0,12603839.0,
