EDA,Resp,PPG Finger,PPG Ear,arduino_ts,event_code
809.0,4010.0,1245.0,1967.0,11458630.0,
809.0,4013.0,1218.0,1977.0,11458634.0,
808.0,4010.0,1194.0,1986.0,11458637.0,
808.0,4012.0,1179.0,1997.0,11458641.0,
807.0,4014.0,1173.0,2005.0,11458645.0,
807.0,4013.0,1168.0,2024.0,11458650.0,
808.0,4013.0,1179.0,2037.0,11458654.0,
807.0,4011.0,1198.0,2048.0,11458658.0,
807.0,4012.0,1221.0,2063.0,11458662.0,
805.0,4011.0,1262.0,2072.0,11458666.0,
806.0,4013.0,1308.0,2085.0,11458670.0,
806.0,4013.0,1372.0,2097.0,11458674.0,
806.0,4015.0,1444.0,2108.0,11458677.0,
806.0,4010.0,1522.0,2118.0,11458681.0,
804.0,4014.0,1605.0,2130.0,11458685.0,
804.0,4011.0,1701.0,2141.0,11458689.0,
805.0,4010.0,1809.0,2147.0,11458693.0,
806.0,4012.0,1940.0,2155.0,11458697.0,
805.0,4011.0,2083.0,2161.0,11458701.0,
804.0,4010.0,2246.0,2168.0,11458705.0,
804.0,4012.0,2410.0,2173.0,11458709.0,
805.0,4011.0,2567.0,2178.0,11458712.0,
805.0,4014.0,2720.0,2181.0,11458716.0,
804.0,4009.0,2879.0,2182.0,11458720.0,
803.0,4013.0,3036.0,2183.0,11458724.0,
803.0,4014.0,3195.0,2181.0,11458728.0,
803.0,4013.0,3348.0,2179.0,11458732.0,
803.0,4014.0,3500.0,2178.0,11458736.0,
803.0,4013.0,3632.0,2175.0,11458739.0,
802.0,4011.0,3758.0,2175.0,11458743.0,
801.0,4014.0,3867.0,2171.0,11458747.0,
802.0,4014.0,3913.0,2173.0,11458751.0,
802.0,4014.0,3913.0,2170.0,11458755.0,
802.0,4014.0,3913.0,2166.0,11458759.0,
801.0,4014.0,3914.0,2162.0,11458763.0,
801.0,4013.0,3914.0,2161.0,11458767.0,
802.0,4010.0,3912.0,2160.0,11458770.0,
802.0,4013.0,3913.0,2158.0,11458774.0,
801.0,4012.0,3913.0,2153.0,11458778.0,
802.0,4010.0,3914.0,2151.0,11458782.0,
800.0,4009.0,3914.0,2148.0,11458786.0,
799.0,4011.0,3914.0,2144.0,11458790.0,
801.0,4013.0,3915.0,2142.0,11458794.0,
801.0,4013.0,3915.0,2138.0,11458797.0,
800.0,4011.0,3914.0,2133.0,11458801.0,
799.0,4012.0,3913.0,2132.0,11458805.0,
800.0,4012.0,3914.0,2128.0,11458809.0,
800.0,4011.0,3914.0,2127.0,11458813.0,
800.0,4010.0,3913.0,2125.0,11458817.0,
799.0,4010.0,3914.0,2123.0,11458821.0,
799.0,4013.0,3914.0,2125.0,11458824.0,
798.0,4014.0,3915.0,2121.0,11458828.0,
799.0,4011.0,3914.0,2118.0,11458832.0,
799.0,4013.0,3914.0,2117.0,11458836.0,
799.0,4010.0,3914.0,2114.0,11458840.0,
798.0,4012.0,3914.0,2111.0,11458844.0,
798.0,4012.0,3914.0,2107.0,11458848.0,
798.0,4013.0,3914.0,2108.0,11458852.0,
798.0,4012.0,3915.0,2102.0,11458855.0,
798.0,4010.0,3914.0,2099.0,11458859.0,
798.0,4011.0,3914.0,2094.0,11458863.0,
797.0,4011.0,3914.0,2086.0,11458867.0,
798.0,4013.0,3914.0,2085.0,11458871.0,
798.0,4009.0,3833.0,2079.0,11458875.0,
798.0,4013.0,3748.0,2077.0,11458879.0,
797.0,4010.0,3639.0,2074.0,11458884.0,
797.0,4013.0,3545.0,2068.0,11458887.0,
799.0,4012.0,3449.0,2069.0,11458892.0,
798.0,4010.0,3357.0,2070.0,11458895.0,
798.0,4014.0,3260.0,2070.0,11458900.0,
798.0,4012.0,3172.0,2067.0,11458903.0,
797.0,4014.0,3046.0,2068.0,11458909.0,
797.0,4014.0,2961.0,2069.0,11458913.0,
797.0,4010.0,2884.0,2062.0,11458917.0,
798.0,4012.0,2807.0,2066.0,11458921.0,
797.0,4009.0,2738.0,2065.0,11458925.0,
796.0,4014.0,2673.0,2067.0,11458928.0,
797.0,4011.0,2613.0,2064.0,11458932.0,
798.0,4014.0,2554.0,2062.0,11458936.0,
796.0,4011.0,2509.0,2062.0,11458940.0,
796.0,4013.0,2466.0,2062.0,11458944.0,
797.0,4011.0,2429.0,2062.0,11458948.0,
796.0,4011.0,2400.0,2061.0,11458952.0,
798.0,4011.0,2374.0,2061.0,11458956.0,
798.0,4013.0,2354.0,2061.0,11458960.0,
796.0,4009.0,2341.0,2055.0,11458963.0,
796.0,4015.0,2330.0,2053.0,11458967.0,
796.0,4013.0,2325.0,2053.0,11458971.0,
797.0,4012.0,2323.0,2049.0,11458975.0,
797.0,4011.0,2326.0,2043.0,11458979.0,
796.0,4014.0,2328.0,2043.0,11458983.0,
795.0,4010.0,2334.0,2037.0,11458987.0,
797.0,4012.0,2340.0,2034.0,11458990.0,
798.0,4012.0,2349.0,2033.0,11458994.0,
797.0,4014.0,2363.0,2028.0,11458998.0,
796.0,4014.0,2371.0,2031.0,11459002.0,
796.0,4010.0,2384.0,2024.0,11459006.0,
796.0,4013.0,2393.0,2024.0,11459010.0,
797.0,4011.0,2402.0,2019.0,11459014.0,
798.0,4013.0,2413.0,2015.0,11459018.0,
796.0,4011.0,2418.0,2016.0,11459021.0,
794.0,4016.0,2424.0,2013.0,11459025.0,
796.0,4012.0,2427.0,2015.0,11459029.0,
797.0,4010.0,2428.0,2010.0,11459033.0,
797.0,4012.0,2429.0,2013.0,11459037.0,
797.0,4010.0,2428.0,2008.0,11459041.0,
796.0,4013.0,2424.0,2008.0,11459045.0,
796.0,4009.0,2422.0,2007.0,11459048.0,
797.0,4009.0,2420.0,2003.0,11459052.0,
797.0,4010.0,2412.0,2005.0,11459056.0,
796.0,4013.0,2409.0,2005.0,11459060.0,
796.0,4011.0,2400.0,1998.0,11459064.0,
795.0,4013.0,2393.0,2001.0,11459068.0,
797.0,4011.0,2385.0,1995.0,11459072.0,
797.0,4013.0,2375.0,1995.0,11459076.0,
796.0,4010.0,2365.0,1993.0,11459079.0,
797.0,4012.0,2353.0,1993.0,11459083.0,
796.0,4012.0,2337.0,1992.0,11459087.0,
796.0,4011.0,2321.0,1992.0,11459091.0,
798.0,4013.0,2303.0,1992.0,11459095.0,
796.0,4011.0,2285.0,1993.0,11459099.0,
796.0,4014.0,2264.0,1998.0,11459103.0,
796.0,4011.0,2238.0,1992.0,11459106.0,
796.0,4012.0,2215.0,1996.0,11459110.0,
796.0,4010.0,2184.0,1995.0,11459114.0,
797.0,4014.0,2158.0,1995.0,11459118.0,
797.0,4010.0,2127.0,1994.0,11459122.0,
797.0,4014.0,2099.0,1995.0,11459126.0,
797.0,4008.0,2067.0,1991.0,11459130.0,
797.0,4013.0,2034.0,1996.0,11459133.0,
797.0,4010.0,2004.0,1990.0,11459137.0,
797.0,4013.0,1971.0,1992.0,11459141.0,
796.0,4013.0,1939.0,1989.0,11459145.0,
797.0,4012.0,1911.0,1991.0,11459149.0,
797.0,4010.0,1884.0,1989.0,11459153.0,
797.0,4014.0,1856.0,1992.0,11459157.0,
798.0,4011.0,1832.0,1989.0,11459161.0,
797.0,4013.0,1804.0,1990.0,11459165.0,
797.0,4012.0,1784.0,1982.0,11459168.0,
799.0,4010.0,1759.0,1987.0,11459172.0,
798.0,4012.0,1741.0,1990.0,11459176.0,
798.0,4012.0,1718.0,1983.0,11459180.0,
797.0,4015.0,1699.0,1982.0,11459184.0,
796.0,4010.0,1681.0,1978.0,11459188.0,
797.0,4013.0,1664.0,1974.0,11459192.0,
798.0,4010.0,1647.0,1970.0,11459196.0,
797.0,4012.0,1632.0,1966.0,11459200.0,
796.0,4010.0,1621.0,1963.0,11459203.0,
796.0,4010.0,1610.0,1957.0,11459207.0,
797.0,4012.0,1601.0,1958.0,11459211.0,
798.0,4013.0,1591.0,1953.0,11459215.0,
796.0,4010.0,1586.0,1950.0,11459219.0,
797.0,4014.0,1578.0,1948.0,11459223.0,
796.0,4011.0,1574.0,1943.0,11459227.0,
797.0,4014.0,1570.0,1941.0,11459230.0,
797.0,4011.0,1567.0,1933.0,11459234.0,
798.0,4013.0,1566.0,1936.0,11459238.0,
798.0,4013.0,1566.0,1933.0,11459242.0,
797.0,4011.0,1568.0,1930.0,11459246.0,
797.0,4012.0,1568.0,1931.0,11459250.0,
796.0,4011.0,1573.0,1928.0,11459254.0,
798.0,4013.0,1574.0,1929.0,11459257.0,
797.0,4011.0,1579.0,1924.0,11459261.0,
796.0,4010.0,1584.0,1922.0,11459265.0,
796.0,4010.0,1592.0,1921.0,11459269.0,
797.0,4013.0,1598.0,1921.0,11459273.0,
797.0,4010.0,1606.0,1917.0,11459277.0,
796.0,4013.0,1611.0,1916.0,11459281.0,
796.0,4010.0,1617.0,1913.0,11459285.0,
796.0,4012.0,1625.0,1913.0,11459288.0,
797.0,4011.0,1633.0,1912.0,11459292.0,
798.0,4010.0,1641.0,1914.0,11459296.0,
797.0,4012.0,1648.0,1914.0,11459300.0,
796.0,4012.0,1655.0,1911.0,11459304.0,
795.0,4013.0,1664.0,1912.0,11459308.0,
796.0,4010.0,1673.0,1910.0,11459312.0,
798.0,4013.0,1681.0,1911.0,11459315.0,
796.0,4013.0,1686.0,1910.0,11459319.0,
796.0,4012.0,1692.0,1908.0,11459323.0,
795.0,4013.0,1694.0,1910.0,11459327.0,
796.0,4011.0,1698.0,1906.0,11459331.0,
796.0,4012.0,1702.0,1905.0,11459335.0,
796.0,4010.0,1706.0,1900.0,11459339.0,
795.0,4013.0,1707.0,1903.0,11459342.0,
793.0,4012.0,1709.0,1903.0,11459346.0,
795.0,4014.0,1709.0,1906.0,11459350.0,
796.0,4011.0,1710.0,1908.0,11459354.0,
796.0,4012.0,1711.0,1914.0,11459358.0,
795.0,4011.0,1714.0,1918.0,11459362.0,
794.0,4012.0,1715.0,1926.0,11459366.0,
794.0,4007.0,1724.0,1936.0,11459369.0,
794.0,4013.0,1732.0,1942.0,11459373.0,
794.0,4010.0,1750.0,1950.0,11459377.0,
794.0,4010.0,1768.0,1960.0,11459381.0,
793.0,4015.0,1793.0,1973.0,11459385.0,
793.0,4009.0,1824.0,1985.0,11459389.0,
793.0,4013.0,1864.0,1999.0,11459393.0,
794.0,4010.0,1919.0,2011.0,11459397.0,
793.0,4012.0,1980.0,2028.0,11459401.0,
793.0,4010.0,2053.0,2040.0,11459404.0,
792.0,4010.0,2142.0,2051.0,11459408.0,
792.0,4011.0,2243.0,2069.0,11459412.0,
794.0,4013.0,2355.0,2082.0,11459416.0,
793.0,4011.0,2483.0,2094.0,11459420.0,
793.0,4011.0,2622.0,2101.0,11459424.0,
792.0,4014.0,2774.0,2113.0,11459428.0,
793.0,4010.0,2937.0,2120.0,11459432.0,
793.0,4014.0,3112.0,2131.0,11459436.0,
791.0,4011.0,3288.0,2139.0,11459439.0,
791.0,4011.0,3481.0,2149.0,11459443.0,
792.0,4011.0,3667.0,2153.0,11459447.0,
791.0,4012.0,3860.0,2163.0,11459451.0,
790.0,4009.0,3915.0,2167.0,11459455.0,
791.0,4012.0,3915.0,2172.0,11459459.0,
792.0,4012.0,3915.0,2176.0,11459463.0,
790.0,4013.0,3914.0,2181.0,11459467.0,
790.0,4010.0,3915.0,2180.0,11459471.0,
790.0,4013.0,3915.0,2183.0,11459474.0,
790.0,4012.0,3914.0,2187.0,11459478.0,
790.0,4013.0,3915.0,2187.0,11459482.0,
789.0,4011.0,3915.0,2188.0,11459486.0,
790.0,4012.0,3915.0,2192.0,11459490.0,
789.0,4010.0,3915.0,2190.0,11459494.0,
790.0,4012.0,3916.0,2193.0,11459497.0,
789.0,4013.0,3915.0,2195.0,11459501.0,
788.0,4009.0,3915.0,2192.0,11459505.0,
788.0,4012.0,3916.0,2192.0,11459509.0,
789.0,4011.0,3916.0,2192.0,11459513.0,
789.0,4011.0,3915.0,2191.0,11459517.0,
789.0,4011.0,3915.0,2187.0,11459520.0,
786.0,4012.0,3915.0,2186.0,11459524.0,
787.0,4013.0,3915.0,2183.0,11459528.0,
787.0,4013.0,3915.0,2182.0,11459532.0,
788.0,4009.0,3916.0,2177.0,11459536.0,
787.0,4013.0,3915.0,2175.0,11459540.0,
787.0,4009.0,3916.0,2169.0,11459544.0,
785.0,4014.0,3915.0,2160.0,11459547.0,
786.0,4014.0,3916.0,2159.0,11459551.0,
786.0,4010.0,3915.0,2151.0,11459555.0,
786.0,4010.0,3916.0,2145.0,11459559.0,
785.0,4012.0,3916.0,2137.0,11459563.0,
784.0,4011.0,3915.0,2128.0,11459567.0,
785.0,4013.0,3915.0,2123.0,11459571.0,
786.0,4010.0,3915.0,2120.0,11459575.0,
785.0,4013.0,3916.0,2117.0,11459578.0,
784.0,4012.0,3915.0,2110.0,11459582.0,
783.0,4010.0,3914.0,2102.0,11459586.0,
784.0,4012.0,3916.0,2103.0,11459590.0,
783.0,4011.0,3915.0,2098.0,11459594.0,
784.0,4013.0,3915.0,2091.0,11459598.0,
784.0,4012.0,3915.0,2086.0,11459602.0,
782.0,4012.0,3916.0,2080.0,11459605.0,
783.0,4011.0,3915.0,2074.0,11459609.0,
783.0,4012.0,3915.0,2071.0,11459613.0,
782.0,4010.0,3915.0,2064.0,11459617.0,
781.0,4012.0,3915.0,2061.0,11459621.0,
780.0,4010.0,3917.0,2054.0,11459625.0,
780.0,4013.0,3915.0,2053.0,11459629.0,
781.0,4010.0,3915.0,2045.0,11459632.0,
781.0,4011.0,3916.0,2039.0,11459636.0,
779.0,4011.0,3915.0,2037.0,11459640.0,
779.0,4012.0,3916.0,2037.0,11459644.0,
778.0,4010.0,3916.0,2032.0,11459648.0,
777.0,4012.0,3916.0,2029.0,11459652.0,
779.0,4011.0,3916.0,2026.0,11459656.0,
778.0,4012.0,3916.0,2026.0,11459659.0,
776.0,4011.0,3916.0,2023.0,11459663.0,
777.0,4012.0,3916.0,2025.0,11459667.0,
777.0,4010.0,3916.0,2026.0,11459671.0,
778.0,4013.0,3916.0,2023.0,11459675.0,
778.0,4009.0,3914.0,2020.0,11459679.0,
776.0,4012.0,3915.0,2024.0,11459683.0,
774.0,4009.0,3915.0,2020.0,11459687.0,
775.0,4013.0,3916.0,2021.0,11459690.0,
776.0,4010.0,3915.0,2022.0,11459694.0,
775.0,4010.0,3915.0,2021.0,11459698.0,
774.0,4010.0,3915.0,2021.0,11459702.0,
773.0,4011.0,3914.0,2022.0,11459706.0,
773.0,4011.0,3915.0,2022.0,11459710.0,
773.0,4013.0,3916.0,2021.0,11459714.0,
771.0,4011.0,3915.0,2018.0,11459717.0,
773.0,4009.0,3915.0,2016.0,11459721.0,
772.0,4014.0,3796.0,2014.0,11459725.0,
771.0,4010.0,3681.0,2012.0,11459729.0,
772.0,4013.0,3571.0,2010.0,11459733.0,
773.0,4010.0,3459.0,2003.0,11459737.0,
771.0,4012.0,3350.0,2006.0,11459741.0,
770.0,4008.0,3251.0,2004.0,11459744.0,
769.0,4011.0,3148.0,2001.0,11459748.0,
769.0,4009.0,3049.0,1999.0,11459752.0,
770.0,4013.0,2951.0,2002.0,11459756.0,
770.0,4009.0,2863.0,2001.0,11459760.0,
769.0,4014.0,2778.0,2001.0,11459764.0,
767.0,4010.0,2693.0,1996.0,11459768.0,
767.0,4013.0,2613.0,2000.0,11459772.0,
767.0,4010.0,2539.0,1998.0,11459776.0,
768.0,4014.0,2465.0,1997.0,11459780.0,
767.0,4010.0,2400.0,1996.0,11459783.0,
765.0,4009.0,2332.0,1993.0,11459787.0,
766.0,4013.0,2268.0,1994.0,11459791.0,
767.0,4012.0,2209.0,1991.0,11459795.0,
767.0,4010.0,2150.0,1988.0,11459799.0,
766.0,4013.0,2095.0,1989.0,11459803.0,
765.0,4011.0,2041.0,1986.0,11459807.0,
765.0,4012.0,1989.0,1987.0,11459811.0,
765.0,4010.0,1945.0,1984.0,11459814.0,
764.0,4011.0,1899.0,1984.0,11459818.0,
764.0,4009.0,1852.0,1980.0,11459822.0,
764.0,4012.0,1811.0,1982.0,11459826.0,
765.0,4010.0,1774.0,1980.0,11459830.0,
762.0,4012.0,1734.0,1982.0,11459834.0,
764.0,4009.0,1706.0,1978.0,11459837.0,
762.0,4009.0,1676.0,1977.0,11459841.0,
761.0,4010.0,1646.0,1977.0,11459845.0,
762.0,4009.0,1622.0,1974.0,11459849.0,
760.0,4011.0,1596.0,1972.0,11459853.0,
762.0,4009.0,1573.0,1966.0,11459857.0,
762.0,4011.0,1554.0,1965.0,11459861.0,
759.0,4010.0,1537.0,1956.0,11459864.0,
760.0,4010.0,1516.0,1955.0,11459868.0,
760.0,4010.0,1503.0,1955.0,11459872.0,
759.0,4010.0,1488.0,1949.0,11459876.0,
759.0,4013.0,1474.0,1948.0,11459880.0,
758.0,4013.0,1462.0,1942.0,11459884.0,
759.0,4009.0,1453.0,1935.0,11459888.0,
759.0,4012.0,1443.0,1932.0,11459892.0,
758.0,4010.0,1432.0,1926.0,11459896.0,
757.0,4011.0,1421.0,1922.0,11459900.0,
757.0,4010.0,1407.0,1917.0,11459903.0,
756.0,4009.0,1397.0,1916.0,11459907.0,
757.0,4010.0,1386.0,1916.0,11459911.0,
756.0,4012.0,1375.0,1914.0,11459916.0,
756.0,4010.0,1366.0,1913.0,11459920.0,
755.0,4011.0,1356.0,1909.0,11459924.0,
755.0,4009.0,1353.0,1906.0,11459928.0,
756.0,4013.0,1346.0,1904.0,11459931.0,
755.0,4008.0,1343.0,1899.0,11459935.0,
755.0,4009.0,1339.0,1903.0,11459939.0,
754.0,4013.0,1332.0,1902.0,11459943.0,
755.0,4009.0,1329.0,1898.0,11459947.0,
753.0,4012.0,1324.0,1897.0,11459951.0,
755.0,4009.0,1322.0,1898.0,11459955.0,
754.0,4012.0,1321.0,1898.0,11459959.0,
753.0,4010.0,1321.0,1898.0,11459962.0,
752.0,4010.0,1319.0,1896.0,11459966.0,
753.0,4012.0,1316.0,1899.0,11459970.0,
753.0,4011.0,1319.0,1899.0,11459974.0,
753.0,4012.0,1319.0,1896.0,11459978.0,
753.0,4009.0,1320.0,1896.0,11459982.0,
751.0,4014.0,1320.0,1896.0,11459986.0,
752.0,4010.0,1324.0,1896.0,11459989.0,
752.0,4009.0,1324.0,1897.0,11459993.0,
752.0,4013.0,1327.0,1901.0,11459997.0,
751.0,4010.0,1329.0,1902.0,11460001.0,
750.0,4012.0,1328.0,1903.0,11460005.0,
750.0,4009.0,1332.0,1901.0,11460009.0,
751.0,4012.0,1332.0,1904.0,11460012.0,
750.0,4010.0,1337.0,1903.0,11460016.0,
748.0,4013.0,1338.0,1901.0,11460020.0,
748.0,4009.0,1347.0,1901.0,11460024.0,
750.0,4012.0,1351.0,1900.0,11460028.0,
748.0,4010.0,1356.0,1903.0,11460032.0,
749.0,4012.0,1362.0,1902.0,11460036.0,
749.0,4012.0,1369.0,1903.0,11460040.0,
748.0,4012.0,1376.0,1900.0,11460044.0,
748.0,4009.0,1383.0,1901.0,11460048.0,
748.0,4012.0,1387.0,1901.0,11460052.0,
747.0,4010.0,1393.0,1895.0,11460056.0,
744.0,4011.0,1392.0,1900.0,11460059.0,
747.0,4010.0,1400.0,1899.0,11460063.0,
745.0,4012.0,1398.0,1901.0,11460067.0,
747.0,4011.0,1399.0,1904.0,11460071.0,
747.0,4008.0,1398.0,1903.0,11460075.0,
747.0,4012.0,1401.0,1907.0,11460079.0,
746.0,4010.0,1399.0,1906.0,11460083.0,
745.0,4012.0,1394.0,1905.0,11460086.0,
746.0,4010.0,1395.0,1909.0,11460090.0,
746.0,4009.0,1394.0,1909.0,11460094.0,
746.0,4009.0,1390.0,1908.0,11460098.0,
744.0,4009.0,1383.0,1911.0,11460102.0,
745.0,4012.0,1383.0,1914.0,11460106.0,
744.0,4009.0,1377.0,1918.0,11460110.0,
745.0,4012.0,1376.0,1926.0,11460113.0,
745.0,4011.0,1376.0,1927.0,11460117.0,
745.0,4011.0,1376.0,1935.0,11460121.0,
743.0,4013.0,1377.0,1945.0,11460125.0,
742.0,4013.0,1383.0,1951.0,11460129.0,
744.0,4011.0,1394.0,1962.0,11460133.0,
743.0,4013.0,1408.0,1972.0,11460137.0,
744.0,4010.0,1436.0,1984.0,11460141.0,
742.0,4012.0,1464.0,1995.0,11460144.0,
742.0,4010.0,1510.0,2006.0,11460148.0,
743.0,4012.0,1564.0,2019.0,11460152.0,
744.0,4012.0,1630.0,2034.0,11460156.0,
743.0,4010.0,1709.0,2045.0,11460160.0,
741.0,4012.0,1811.0,2057.0,11460164.0,
742.0,4009.0,1926.0,2067.0,11460168.0,
743.0,4013.0,2056.0,2079.0,11460171.0,
743.0,4009.0,2208.0,2087.0,11460175.0,
742.0,4011.0,2368.0,2097.0,11460179.0,
741.0,4012.0,2542.0,2106.0,11460183.0,
740.0,4010.0,2732.0,2109.0,11460187.0,
740.0,4013.0,2936.0,2118.0,11460191.0,
743.0,4010.0,3145.0,2126.0,11460195.0,
742.0,4011.0,3373.0,2132.0,11460199.0,
741.0,4010.0,3591.0,2140.0,11460203.0,
741.0,4011.0,3818.0,2145.0,11460206.0,
741.0,4010.0,3916.0,2147.0,11460210.0,
741.0,4013.0,3916.0,2152.0,11460214.0,
741.0,4010.0,3916.0,2156.0,11460218.0,
740.0,4010.0,3918.0,2158.0,11460222.0,
739.0,4011.0,3915.0,2163.0,11460226.0,
740.0,4010.0,3917.0,2166.0,11460230.0,
740.0,4012.0,3917.0,2170.0,11460234.0,
741.0,4009.0,3916.0,2171.0,11460237.0,
740.0,4010.0,3917.0,2176.0,11460241.0,
739.0,4011.0,3917.0,2180.0,11460245.0,
739.0,4012.0,3916.0,2182.0,11460249.0,
740.0,4012.0,3915.0,2180.0,11460253.0,
739.0,4009.0,3916.0,2179.0,11460257.0,
740.0,4010.0,3916.0,2181.0,11460261.0,
740.0,4009.0,3916.0,2178.0,11460265.0,
739.0,4011.0,3916.0,2175.0,11460269.0,
739.0,4009.0,3917.0,2171.0,11460273.0,
739.0,4011.0,3917.0,2167.0,11460277.0,
739.0,4008.0,3916.0,2167.0,11460281.0,
739.0,4011.0,3916.0,2162.0,11460285.0,
738.0,4008.0,3916.0,2162.0,11460288.0,
739.0,4009.0,3915.0,2157.0,11460292.0,
740.0,4009.0,3917.0,2154.0,11460296.0,
739.0,4010.0,3916.0,2151.0,11460300.0,
739.0,4010.0,3916.0,2144.0,11460304.0,
738.0,4012.0,3916.0,2142.0,11460308.0,
738.0,4013.0,3917.0,2136.0,11460312.0,
738.0,4013.0,3916.0,2130.0,11460316.0,
739.0,4010.0,3915.0,2124.0,11460320.0,
738.0,4012.0,3916.0,2118.0,11460324.0,
738.0,4010.0,3916.0,2110.0,11460328.0,
738.0,4011.0,3917.0,2108.0,11460332.0,
739.0,4010.0,3918.0,2098.0,11460336.0,
738.0,4011.0,3916.0,2093.0,11460339.0,
737.0,4010.0,3917.0,2088.0,11460343.0,
737.0,4009.0,3915.0,2081.0,11460347.0,
737.0,4010.0,3917.0,2075.0,11460351.0,
738.0,4012.0,3916.0,2068.0,11460355.0,
738.0,4010.0,3917.0,2065.0,11460359.0,
737.0,4012.0,3916.0,2059.0,11460363.0,
736.0,4009.0,3917.0,2054.0,11460366.0,
737.0,4011.0,3916.0,2054.0,11460370.0,
737.0,4010.0,3916.0,2049.0,11460374.0,
737.0,4012.0,3917.0,2045.0,11460378.0,
736.0,4008.0,3916.0,2040.0,11460382.0,
735.0,4011.0,3916.0,2039.0,11460386.0,
736.0,4009.0,3916.0,2035.0,11460390.0,
737.0,4011.0,3916.0,2033.0,11460394.0,
737.0,4009.0,3916.0,2028.0,11460398.0,
735.0,4013.0,3916.0,2024.0,11460401.0,
735.0,4010.0,3915.0,2022.0,11460405.0,
735.0,4014.0,3916.0,2023.0,11460409.0,
735.0,4008.0,3916.0,2021.0,11460413.0,
737.0,4010.0,3912.0,2021.0,11460417.0,
735.0,4009.0,3680.0,2019.0,11460421.0,
734.0,4011.0,3497.0,2023.0,11460425.0,
735.0,4009.0,3318.0,2017.0,11460428.0,
735.0,4008.0,3144.0,2022.0,11460432.0,
737.0,4008.0,2971.0,2022.0,11460436.0,
736.0,4012.0,2809.0,2025.0,11460440.0,
735.0,4012.0,2664.0,2027.0,11460444.0,
734.0,4009.0,2527.0,2025.0,11460448.0,
736.0,4011.0,2395.0,2033.0,11460452.0,
736.0,4010.0,2274.0,2032.0,11460456.0,
735.0,4012.0,2162.0,2032.0,11460460.0,
735.0,4008.0,2063.0,2029.0,11460463.0,
734.0,4010.0,1971.0,2025.0,11460467.0,
735.0,4012.0,1886.0,2029.0,11460471.0,
735.0,4012.0,1809.0,2029.0,11460475.0,
736.0,4009.0,1741.0,2029.0,11460479.0,
734.0,4012.0,1684.0,2026.0,11460483.0,
734.0,4009.0,1633.0,2027.0,11460487.0,
735.0,4012.0,1591.0,2026.0,11460491.0,
735.0,4009.0,1555.0,2025.0,11460494.0,
735.0,4008.0,1527.0,2026.0,11460498.0,
734.0,4009.0,1503.0,2024.0,11460502.0,
734.0,4012.0,1480.0,2027.0,11460506.0,
734.0,4009.0,1464.0,2022.0,11460510.0,
734.0,4012.0,1449.0,2022.0,11460514.0,
733.0,4009.0,1439.0,2017.0,11460518.0,
734.0,4010.0,1426.0,2015.0,11460521.0,
734.0,4014.0,1419.0,2010.0,11460525.0,
735.0,4009.0,1412.0,2007.0,11460529.0,
735.0,4009.0,1405.0,2005.0,11460533.0,
734.0,4012.0,1399.0,1999.0,11460537.0,
734.0,4009.0,1394.0,1999.0,11460541.0,
734.0,4011.0,1389.0,1995.0,11460545.0,
735.0,4009.0,1382.0,1991.0,11460548.0,
735.0,4012.0,1377.0,1986.0,11460552.0,
735.0,4012.0,1372.0,1984.0,11460556.0,
735.0,4012.0,1366.0,1978.0,11460560.0,
733.0,4011.0,1357.0,1972.0,11460564.0,
734.0,4012.0,1348.0,1969.0,11460568.0,
734.0,4011.0,1341.0,1964.0,11460572.0,
735.0,4013.0,1332.0,1963.0,11460576.0,
735.0,4010.0,1323.0,1956.0,11460580.0,
734.0,4012.0,1313.0,1958.0,11460584.0,
735.0,4009.0,1298.0,1952.0,11460588.0,
736.0,4011.0,1291.0,1954.0,11460592.0,
736.0,4008.0,1277.0,1948.0,11460596.0,
734.0,4009.0,1263.0,1948.0,11460599.0,
735.0,4011.0,1247.0,1949.0,11460603.0,
734.0,4011.0,1233.0,1948.0,11460607.0,
735.0,4010.0,1217.0,1945.0,11460611.0,
735.0,4008.0,1201.0,1944.0,11460615.0,
736.0,4007.0,1184.0,1942.0,11460619.0,
735.0,4008.0,1163.0,1942.0,11460623.0,
735.0,4008.0,1147.0,1943.0,11460627.0,
735.0,4010.0,1127.0,1943.0,11460630.0,
736.0,4012.0,1105.0,1939.0,11460634.0,
735.0,4008.0,1084.0,1939.0,11460638.0,
736.0,4011.0,1062.0,1937.0,11460642.0,
736.0,4007.0,1040.0,1932.0,11460646.0,
736.0,4009.0,1018.0,1931.0,11460650.0,
736.0,4009.0,1000.0,1925.0,11460654.0,
738.0,4009.0,976.0,1923.0,11460657.0,
737.0,4009.0,958.0,1921.0,11460661.0,
736.0,4012.0,940.0,1921.0,11460665.0,
736.0,4012.0,921.0,1918.0,11460669.0,
737.0,4007.0,908.0,1917.0,11460673.0,
737.0,4012.0,890.0,1916.0,11460677.0,
737.0,4010.0,877.0,1912.0,11460680.0,
737.0,4009.0,865.0,1909.0,11460684.0,
737.0,4013.0,854.0,1908.0,11460688.0,
737.0,4012.0,846.0,1907.0,11460692.0,
736.0,4008.0,839.0,1901.0,11460696.0,
737.0,4010.0,830.0,1902.0,11460700.0,
737.0,4010.0,827.0,1901.0,11460704.0,
736.0,4011.0,821.0,1902.0,11460707.0,
737.0,4012.0,815.0,1901.0,11460711.0,
737.0,4012.0,815.0,1900.0,11460715.0,
737.0,4012.0,809.0,1900.0,11460719.0,
738.0,4008.0,802.0,1901.0,11460723.0,
737.0,4012.0,799.0,1900.0,11460727.0,
738.0,4012.0,798.0,1902.0,11460731.0,
738.0,4011.0,798.0,1901.0,11460734.0,
739.0,4009.0,796.0,1897.0,11460738.0,
738.0,4012.0,800.0,1902.0,11460742.0,
737.0,4013.0,801.0,1903.0,11460746.0,
738.0,4010.0,801.0,1903.0,11460750.0,
739.0,4012.0,806.0,1903.0,11460754.0,
739.0,4009.0,807.0,1899.0,11460758.0,
738.0,4011.0,812.0,1900.0,11460762.0,
738.0,4008.0,815.0,1897.0,11460765.0,
739.0,4009.0,818.0,1895.0,11460769.0,
739.0,4012.0,820.0,1896.0,11460773.0,
739.0,4009.0,829.0,1889.0,11460778.0,
738.0,4013.0,832.0,1895.0,11460781.0,
739.0,4009.0,838.0,1888.0,11460785.0,
739.0,4010.0,837.0,1890.0,11460789.0,
740.0,4011.0,843.0,1894.0,11460793.0,
740.0,4009.0,848.0,1889.0,11460797.0,
740.0,4010.0,856.0,1889.0,11460802.0,
740.0,4012.0,862.0,1889.0,11460806.0,
739.0,4010.0,869.0,1887.0,11460810.0,
741.0,4012.0,876.0,1888.0,11460813.0,
741.0,4011.0,886.0,1888.0,11460817.0,
740.0,4012.0,890.0,1891.0,11460821.0,
740.0,4013.0,894.0,1891.0,11460825.0,
740.0,4012.0,899.0,1891.0,11460829.0,
742.0,4010.0,901.0,1891.0,11460833.0,
742.0,4012.0,901.0,1889.0,11460837.0,
743.0,4008.0,903.0,1889.0,11460841.0,
737.0,4012.0,905.0,1891.0,11460844.0,
741.0,4009.0,907.0,1888.0,11460848.0,
741.0,4012.0,909.0,1890.0,11460852.0,
742.0,4013.0,905.0,1891.0,11460856.0,
742.0,4008.0,907.0,1887.0,11460860.0,
742.0,4012.0,906.0,1886.0,11460864.0,
741.0,4008.0,903.0,1885.0,11460868.0,
743.0,4012.0,900.0,1888.0,11460872.0,
744.0,4009.0,899.0,1887.0,11460875.0,
744.0,4012.0,898.0,1893.0,11460879.0,
742.0,4013.0,897.0,1894.0,11460883.0,
742.0,4012.0,897.0,1899.0,11460887.0,
742.0,4010.0,893.0,1903.0,11460891.0,
744.0,4012.0,892.0,1911.0,11460895.0,
744.0,4010.0,894.0,1915.0,11460899.0,
743.0,4012.0,893.0,1927.0,11460903.0,
743.0,4009.0,894.0,1938.0,11460906.0,
744.0,4009.0,904.0,1946.0,11460910.0,
744.0,4012.0,914.0,1958.0,11460914.0,
745.0,4012.0,931.0,1971.0,11460918.0,
745.0,4010.0,956.0,1982.0,11460922.0,
745.0,4012.0,991.0,1992.0,11460926.0,
745.0,4010.0,1036.0,2010.0,11460930.0,
745.0,4012.0,1089.0,2027.0,11460934.0,
746.0,4012.0,1164.0,2042.0,11460938.0,
745.0,4012.0,1242.0,2056.0,11460942.0,
745.0,4012.0,1337.0,2070.0,11460946.0,
745.0,4012.0,1445.0,2080.0,11460950.0,
747.0,4009.0,1564.0,2088.0,11460954.0,
746.0,4013.0,1699.0,2098.0,11460958.0,
747.0,4010.0,1844.0,2104.0,11460962.0,
746.0,4012.0,1998.0,2111.0,11460966.0,
747.0,4010.0,2161.0,2120.0,11460969.0,
748.0,4011.0,2331.0,2127.0,11460973.0,
749.0,4011.0,2504.0,2131.0,11460977.0,
748.0,4010.0,2687.0,2138.0,11460981.0,
747.0,4011.0,2868.0,2143.0,11460985.0,
747.0,4009.0,3046.0,2143.0,11460989.0,
750.0,4014.0,3235.0,2147.0,11460993.0,
749.0,4011.0,3424.0,2148.0,11460997.0,
749.0,4011.0,3585.0,2153.0,11461001.0,
748.0,4010.0,3740.0,2151.0,11461005.0,
748.0,4011.0,3877.0,2152.0,11461008.0,
749.0,4010.0,3915.0,2153.0,11461012.0,
751.0,4012.0,3915.0,2152.0,11461016.0,
750.0,4010.0,3916.0,2152.0,11461020.0,
750.0,4012.0,3915.0,2151.0,11461024.0,
750.0,4009.0,3915.0,2148.0,11461028.0,
750.0,4014.0,3915.0,2149.0,11461031.0,
751.0,4013.0,3915.0,2144.0,11461035.0,
751.0,4012.0,3916.0,2139.0,11461039.0,
752.0,4010.0,3917.0,2133.0,11461043.0,
752.0,4009.0,3915.0,2130.0,11461047.0,
752.0,4011.0,3915.0,2127.0,11461051.0,
751.0,4010.0,3915.0,2122.0,11461055.0,
753.0,4013.0,3916.0,2120.0,11461059.0,
753.0,4009.0,3915.0,2115.0,11461062.0,
751.0,4013.0,3916.0,2110.0,11461066.0,
753.0,4009.0,3916.0,2103.0,11461070.0,
753.0,4010.0,3915.0,2103.0,11461074.0,
753.0,4011.0,3916.0,2097.0,11461078.0,
754.0,4010.0,3915.0,2094.0,11461082.0,
753.0,4013.0,3916.0,2092.0,11461085.0,
754.0,4011.0,3915.0,2087.0,11461089.0,
754.0,4013.0,3901.0,2086.0,11461093.0,
755.0,4012.0,3757.0,2082.0,11461097.0,
753.0,4008.0,3637.0,2078.0,11461101.0,
754.0,4013.0,3511.0,2073.0,11461105.0,
755.0,4010.0,3387.0,2069.0,11461109.0,
756.0,4012.0,3256.0,2066.0,11461113.0,
756.0,4011.0,3133.0,2064.0,11461116.0,
756.0,4010.0,3008.0,2057.0,11461120.0,
755.0,4013.0,2880.0,2052.0,11461124.0,
756.0,4009.0,2755.0,2047.0,11461128.0,
757.0,4012.0,2633.0,2048.0,11461132.0,
758.0,4010.0,2506.0,2042.0,11461136.0,
757.0,4012.0,2387.0,2043.0,11461140.0,
756.0,4010.0,2271.0,2033.0,11461143.0,
757.0,4013.0,2157.0,2033.0,11461147.0,
757.0,4012.0,2048.0,2029.0,11461151.0,
759.0,4011.0,1936.0,2024.0,11461155.0,
759.0,4013.0,1833.0,2022.0,11461159.0,
758.0,4012.0,1736.0,2020.0,11461163.0,
758.0,4013.0,1640.0,2019.0,11461167.0,
759.0,4011.0,1551.0,2013.0,11461171.0,
760.0,4010.0,1474.0,2011.0,11461175.0,
759.0,4011.0,1396.0,2010.0,11461179.0,
759.0,4009.0,1328.0,2004.0,11461183.0,
757.0,4012.0,1261.0,2004.0,11461187.0,
761.0,4012.0,1204.0,2004.0,11461190.0,
760.0,4012.0,1151.0,2002.0,11461194.0,
761.0,4011.0,1104.0,2000.0,11461198.0,
761.0,4011.0,1063.0,1998.0,11461202.0,
760.0,4013.0,1026.0,1997.0,11461206.0,
761.0,4011.0,1004.0,1998.0,11461210.0,
764.0,4009.0,984.0,1993.0,11461214.0,
762.0,4013.0,973.0,1994.0,11461217.0,
761.0,4010.0,964.0,1992.0,11461221.0,
762.0,4012.0,960.0,1992.0,11461225.0,
762.0,4011.0,967.0,1992.0,11461229.0,
764.0,4010.0,977.0,1992.0,11461233.0,
763.0,4014.0,988.0,1992.0,11461237.0,
763.0,4011.0,1003.0,1995.0,11461241.0,
763.0,4013.0,1024.0,1994.0,11461244.0,
763.0,4010.0,1045.0,1993.0,11461248.0,
763.0,4009.0,1064.0,1989.0,11461252.0,
764.0,4012.0,1090.0,1991.0,11461256.0,
764.0,4014.0,1113.0,1990.0,11461260.0,
765.0,4010.0,1141.0,1990.0,11461264.0,
765.0,4011.0,1164.0,1990.0,11461268.0,
765.0,4010.0,1187.0,1993.0,11461272.0,
765.0,4010.0,1212.0,1990.0,11461276.0,
766.0,4011.0,1234.0,1991.0,11461279.0,
764.0,4012.0,1255.0,1990.0,11461283.0,
766.0,4012.0,1275.0,1990.0,11461287.0,
766.0,4012.0,1297.0,1988.0,11461291.0,
766.0,4010.0,1314.0,1983.0,11461295.0,
768.0,4013.0,1324.0,1985.0,11461299.0,
767.0,4010.0,1338.0,1983.0,11461303.0,
765.0,4009.0,1350.0,1983.0,11461306.0,
766.0,4013.0,1357.0,1982.0,11461310.0,
768.0,4011.0,1368.0,1982.0,11461314.0,
767.0,4009.0,1371.0,1982.0,11461318.0,
768.0,4014.0,1372.0,1982.0,11461322.0,
768.0,4012.0,1371.0,1983.0,11461326.0,
768.0,4013.0,1370.0,1979.0,11461330.0,
769.0,4010.0,1366.0,1975.0,11461334.0,
769.0,4014.0,1361.0,1975.0,11461338.0,
769.0,4010.0,1353.0,1974.0,11461342.0,
768.0,4013.0,1343.0,1972.0,11461346.0,
769.0,4010.0,1335.0,1969.0,11461349.0,
769.0,4010.0,1324.0,1967.0,11461353.0,
770.0,4009.0,1310.0,1967.0,11461357.0,
770.0,4012.0,1295.0,1964.0,11461361.0,
770.0,4010.0,1279.0,1961.0,11461365.0,
769.0,4010.0,1262.0,1956.0,11461369.0,
770.0,4009.0,1243.0,1954.0,11461373.0,
770.0,4064.0,1222.0,1953.0,11461376.0,
770.0,4010.0,1200.0,1949.0,11461380.0,
770.0,4013.0,1178.0,1947.0,11461384.0,
770.0,4011.0,1154.0,1943.0,11461388.0,
772.0,4013.0,1132.0,1941.0,11461392.0,
773.0,4013.0,1111.0,1940.0,11461396.0,
771.0,4012.0,1088.0,1933.0,11461400.0,
771.0,4013.0,1067.0,1932.0,11461404.0,
771.0,4012.0,1046.0,1927.0,11461408.0,
772.0,4013.0,1029.0,1925.0,11461411.0,
772.0,4009.0,1010.0,1927.0,11461415.0,
772.0,4011.0,989.0,1922.0,11461419.0,
772.0,4010.0,973.0,1923.0,11461423.0,
772.0,4013.0,955.0,1921.0,11461427.0,
773.0,4010.0,939.0,1918.0,11461431.0,
773.0,4012.0,918.0,1919.0,11461435.0,
773.0,4011.0,899.0,1913.0,11461438.0,
773.0,4012.0,887.0,1913.0,11461442.0,
773.0,4013.0,869.0,1913.0,11461446.0,
774.0,4013.0,852.0,1908.0,11461450.0,
774.0,4010.0,838.0,1904.0,11461454.0,
774.0,4012.0,824.0,1908.0,11461458.0,
773.0,4009.0,812.0,1902.0,11461462.0,
774.0,4013.0,798.0,1901.0,11461466.0,
774.0,4012.0,789.0,1899.0,11461469.0,
775.0,4014.0,781.0,1897.0,11461473.0,
776.0,4012.0,774.0,1898.0,11461477.0,
775.0,4013.0,765.0,1896.0,11461481.0,
775.0,4012.0,758.0,1898.0,11461485.0,
775.0,4013.0,752.0,1896.0,11461489.0,
775.0,4012.0,748.0,1896.0,11461493.0,
775.0,4013.0,747.0,1896.0,11461496.0,
775.0,4009.0,747.0,1896.0,11461500.0,
775.0,4012.0,746.0,1897.0,11461504.0,
775.0,4012.0,747.0,1902.0,11461508.0,
776.0,4011.0,747.0,1902.0,11461512.0,
776.0,4010.0,747.0,1905.0,11461516.0,
775.0,4010.0,748.0,1905.0,11461520.0,
775.0,4010.0,750.0,1911.0,11461524.0,
776.0,4010.0,756.0,1911.0,11461527.0,
776.0,4013.0,759.0,1915.0,11461531.0,
777.0,4012.0,765.0,1913.0,11461535.0,
777.0,4012.0,773.0,1917.0,11461539.0,
776.0,4013.0,776.0,1919.0,11461543.0,
775.0,4012.0,784.0,1921.0,11461547.0,
777.0,4013.0,790.0,1922.0,11461551.0,
778.0,4013.0,794.0,1923.0,11461555.0,
777.0,4012.0,796.0,1925.0,11461559.0,
776.0,4013.0,799.0,1924.0,11461563.0,
776.0,4013.0,803.0,1923.0,11461566.0,
776.0,4012.0,807.0,1923.0,11461570.0,
778.0,4011.0,815.0,1920.0,11461574.0,
778.0,4013.0,813.0,1921.0,11461578.0,
775.0,4010.0,820.0,1918.0,11461582.0,
777.0,4013.0,820.0,1918.0,11461586.0,
776.0,4009.0,824.0,1914.0,11461590.0,
777.0,4014.0,823.0,1912.0,11461594.0,
777.0,4011.0,830.0,1907.0,11461598.0,
777.0,4013.0,830.0,1909.0,11461602.0,
776.0,4011.0,835.0,1907.0,11461605.0,
777.0,4013.0,835.0,1905.0,11461609.0,
777.0,4012.0,838.0,1905.0,11461613.0,
778.0,4009.0,840.0,1902.0,11461617.0,
775.0,4013.0,840.0,1902.0,11461621.0,
776.0,4010.0,843.0,1899.0,11461625.0,
776.0,4014.0,841.0,1899.0,11461629.0,
777.0,4011.0,847.0,1898.0,11461633.0,
778.0,4014.0,848.0,1897.0,11461636.0,
777.0,4014.0,848.0,1896.0,11461640.0,
777.0,4013.0,850.0,1898.0,11461644.0,
776.0,4010.0,854.0,1898.0,11461648.0,
777.0,4013.0,854.0,1903.0,11461652.0,
777.0,4010.0,858.0,1906.0,11461656.0,
776.0,4012.0,859.0,1916.0,11461660.0,
776.0,4011.0,858.0,1921.0,11461663.0,
775.0,4013.0,860.0,1931.0,11461667.0,
776.0,4010.0,863.0,1935.0,11461671.0,
777.0,4013.0,866.0,1947.0,11461675.0,
776.0,4010.0,874.0,1957.0,11461679.0,
776.0,4014.0,883.0,1967.0,11461683.0,
775.0,4010.0,892.0,1976.0,11461687.0,
776.0,4013.0,908.0,1985.0,11461691.0,
776.0,4009.0,931.0,1993.0,11461694.0,
777.0,4010.0,959.0,2002.0,11461698.0,
776.0,4013.0,997.0,2014.0,11461702.0,
773.0,4013.0,1036.0,2022.0,11461706.0,
776.0,4013.0,1090.0,2030.0,11461710.0,
777.0,4013.0,1148.0,2035.0,11461714.0,
777.0,4014.0,1214.0,2043.0,11461717.0,
776.0,4013.0,1293.0,2051.0,11461721.0,
775.0,4010.0,1377.0,2057.0,11461725.0,
777.0,4015.0,1471.0,2064.0,11461729.0,
777.0,4013.0,1578.0,2073.0,11461733.0,
777.0,4010.0,1687.0,2077.0,11461737.0,
775.0,4014.0,1798.0,2088.0,11461741.0,
774.0,4010.0,1921.0,2086.0,11461745.0,
775.0,4009.0,2045.0,2093.0,11461748.0,
775.0,4009.0,2172.0,2097.0,11461752.0,
776.0,4012.0,2298.0,2100.0,11461756.0,
774.0,4011.0,2429.0,2101.0,11461760.0,
774.0,4013.0,2550.0,2105.0,11461764.0,
774.0,4011.0,2676.0,2107.0,11461768.0,
776.0,4014.0,2792.0,2110.0,11461772.0,
776.0,4011.0,2907.0,2105.0,11461776.0,
775.0,4012.0,3011.0,2112.0,11461779.0,
774.0,4010.0,3109.0,2113.0,11461783.0,
774.0,4011.0,3194.0,2111.0,11461787.0,
775.0,4011.0,3274.0,2114.0,11461791.0,
775.0,4009.0,3337.0,2111.0,11461795.0,
774.0,4009.0,3391.0,2108.0,11461799.0,
774.0,4014.0,3440.0,2106.0,11461803.0,
773.0,4010.0,3473.0,2102.0,11461806.0,
774.0,4012.0,3494.0,2101.0,11461810.0,
774.0,4014.0,3505.0,2096.0,11461814.0,
775.0,4010.0,3507.0,2089.0,11461818.0,
773.0,4012.0,3501.0,2085.0,11461822.0,
774.0,4009.0,3483.0,2081.0,11461826.0,
774.0,4012.0,3459.0,2079.0,11461829.0,
774.0,4009.0,3423.0,2076.0,11461833.0,
773.0,4012.0,3385.0,2076.0,11461837.0,
773.0,4009.0,3338.0,2072.0,11461841.0,
771.0,4012.0,3286.0,2069.0,11461845.0,
771.0,4008.0,3226.0,2063.0,11461849.0,
773.0,4013.0,3160.0,2063.0,11461853.0,
773.0,4010.0,3091.0,2061.0,11461856.0,
772.0,4011.0,3018.0,2055.0,11461860.0,
771.0,4011.0,2939.0,2052.0,11461864.0,
772.0,4013.0,2864.0,2050.0,11461868.0,
772.0,4011.0,2772.0,2046.0,11461873.0,
773.0,4012.0,2690.0,2043.0,11461877.0,
771.0,4010.0,2612.0,2039.0,11461881.0,
772.0,4013.0,2533.0,2039.0,11461884.0,
772.0,4010.0,2457.0,2035.0,11461888.0,
771.0,4012.0,2375.0,2031.0,11461892.0,
772.0,4011.0,2297.0,2026.0,11461896.0,
770.0,4011.0,2219.0,2023.0,11461900.0,
771.0,4012.0,2142.0,2022.0,11461904.0,
771.0,4010.0,2063.0,2019.0,11461908.0,
771.0,4013.0,1988.0,2017.0,11461912.0,
772.0,4011.0,1920.0,2011.0,11461915.0,
771.0,4010.0,1850.0,2012.0,11461919.0,
771.0,4011.0,1788.0,2008.0,11461923.0,
769.0,4009.0,1723.0,2006.0,11461927.0,
770.0,4012.0,1661.0,2005.0,11461931.0,
771.0,4010.0,1603.0,2007.0,11461935.0,
771.0,4012.0,1510.0,2001.0,11461941.0,
769.0,4013.0,1465.0,1997.0,11461945.0,
770.0,4010.0,1419.0,1999.0,11461949.0,
770.0,4013.0,1378.0,2001.0,11461953.0,
770.0,4009.0,1341.0,2000.0,11461957.0,
769.0,4011.0,1308.0,2001.0,11461960.0,
768.0,4009.0,1281.0,1999.0,11461964.0,
770.0,4010.0,1260.0,1999.0,11461968.0,
769.0,4013.0,1241.0,2000.0,11461972.0,
769.0,4013.0,1230.0,1998.0,11461976.0,
769.0,4011.0,1218.0,1996.0,11461980.0,
768.0,4011.0,1217.0,1994.0,11461984.0,
768.0,4012.0,1215.0,1996.0,11461988.0,
770.0,4012.0,1221.0,1998.0,11461991.0,
769.0,4013.0,1229.0,1996.0,11461995.0,
768.0,4011.0,1236.0,2000.0,11461999.0,
767.0,4010.0,1250.0,1999.0,11462003.0,
767.0,4014.0,1264.0,1999.0,11462007.0,
768.0,4012.0,1284.0,2001.0,11462011.0,
768.0,4010.0,1302.0,2001.0,11462015.0,
768.0,4012.0,1322.0,2004.0,11462019.0,
766.0,4009.0,1344.0,2000.0,11462022.0,
767.0,4009.0,1368.0,2001.0,11462026.0,
768.0,4013.0,1390.0,1999.0,11462030.0,
767.0,4012.0,1415.0,1997.0,11462034.0,
767.0,4009.0,1439.0,1996.0,11462038.0,
766.0,4013.0,1463.0,1997.0,11462042.0,
765.0,4010.0,1486.0,1991.0,11462046.0,
767.0,4013.0,1507.0,1992.0,11462050.0,
767.0,4009.0,1525.0,1989.0,11462053.0,
767.0,4009.0,1543.0,1988.0,11462057.0,
766.0,4011.0,1557.0,1990.0,11462061.0,
766.0,4012.0,1568.0,1988.0,11462065.0,
766.0,4010.0,1580.0,1984.0,11462069.0,
766.0,4013.0,1590.0,1985.0,11462073.0,
766.0,4009.0,1594.0,1983.0,11462077.0,
765.0,4011.0,1600.0,1986.0,11462080.0,
764.0,4012.0,1602.0,1983.0,11462084.0,
764.0,4012.0,1602.0,1980.0,11462088.0,
766.0,4010.0,1602.0,1977.0,11462092.0,
765.0,4012.0,1599.0,1975.0,11462096.0,
766.0,4009.0,1592.0,1973.0,11462100.0,
765.0,4012.0,1586.0,1976.0,11462103.0,
764.0,4010.0,1577.0,1971.0,11462107.0,
765.0,4010.0,1566.0,1973.0,11462111.0,
765.0,4010.0,1559.0,1973.0,11462115.0,
765.0,4010.0,1542.0,1971.0,11462119.0,
764.0,4013.0,1529.0,1972.0,11462123.0,
763.0,4009.0,1515.0,1969.0,11462127.0,
765.0,4013.0,1497.0,1971.0,11462131.0,
764.0,4010.0,1479.0,1965.0,11462134.0,
764.0,4012.0,1461.0,1965.0,11462138.0,
762.0,4014.0,1441.0,1966.0,11462142.0,
763.0,4009.0,1423.0,1961.0,11462146.0,
763.0,4012.0,1403.0,1965.0,11462150.0,
763.0,4009.0,1386.0,1959.0,11462154.0,
764.0,4012.0,1367.0,1960.0,11462158.0,
763.0,4010.0,1351.0,1958.0,11462161.0,
762.0,4010.0,1333.0,1954.0,11462165.0,
763.0,4010.0,1319.0,1951.0,11462169.0,
763.0,4013.0,1301.0,1951.0,11462173.0,
763.0,4010.0,1282.0,1947.0,11462177.0,
762.0,4011.0,1266.0,1944.0,11462181.0,
762.0,4011.0,1247.0,1938.0,11462185.0,
762.0,4010.0,1232.0,1940.0,11462189.0,
762.0,4009.0,1217.0,1941.0,11462193.0,
762.0,4010.0,1204.0,1938.0,11462197.0,
761.0,4010.0,1192.0,1939.0,11462201.0,
761.0,4010.0,1175.0,1939.0,11462205.0,
761.0,4011.0,1163.0,1936.0,11462208.0,
761.0,4012.0,1154.0,1934.0,11462212.0,
763.0,4012.0,1147.0,1932.0,11462216.0,
761.0,4010.0,1136.0,1930.0,11462220.0,
761.0,4010.0,1132.0,1929.0,11462224.0,
760.0,4008.0,1122.0,1924.0,11462228.0,
761.0,4010.0,1112.0,1921.0,11462232.0,
762.0,4010.0,1108.0,1923.0,11462235.0,
761.0,4013.0,1102.0,1922.0,11462239.0,
759.0,4013.0,1099.0,1918.0,11462243.0,
760.0,4012.0,1096.0,1917.0,11462247.0,
761.0,4011.0,1092.0,1916.0,11462251.0,
761.0,4012.0,1089.0,1914.0,11462255.0,
761.0,4008.0,1084.0,1916.0,11462259.0,
760.0,4009.0,1087.0,1913.0,11462263.0,
759.0,4011.0,1083.0,1911.0,11462267.0,
758.0,4011.0,1078.0,1912.0,11462271.0,
761.0,4010.0,1077.0,1912.0,11462275.0,
760.0,4009.0,1071.0,1910.0,11462279.0,
760.0,4010.0,1070.0,1911.0,11462282.0,
759.0,4012.0,1070.0,1912.0,11462286.0,
759.0,4012.0,1066.0,1911.0,11462290.0,
760.0,4012.0,1062.0,1912.0,11462294.0,
759.0,4013.0,1061.0,1911.0,11462298.0,
759.0,4012.0,1059.0,1911.0,11462302.0,
758.0,4012.0,1061.0,1912.0,11462305.0,
758.0,4012.0,1060.0,1914.0,11462309.0,
759.0,4014.0,1059.0,1914.0,11462313.0,
759.0,4011.0,1060.0,1919.0,11462317.0,
758.0,4011.0,1065.0,1919.0,11462321.0,
758.0,4012.0,1068.0,1916.0,11462325.0,
758.0,4013.0,1072.0,1917.0,11462329.0,
758.0,4013.0,1077.0,1919.0,11462333.0,
759.0,4012.0,1079.0,1919.0,11462336.0,
758.0,4009.0,1088.0,1920.0,11462340.0,
758.0,4010.0,1095.0,1917.0,11462344.0,
759.0,4010.0,1095.0,1913.0,11462348.0,
758.0,4010.0,1106.0,1913.0,11462352.0,
759.0,4010.0,1112.0,1912.0,11462356.0,
758.0,4010.0,1123.0,1913.0,11462360.0,
757.0,4011.0,1128.0,1911.0,11462364.0,
757.0,4010.0,1133.0,1911.0,11462367.0,
758.0,4011.0,1138.0,1911.0,11462371.0,
760.0,4010.0,1141.0,1910.0,11462375.0,
758.0,4012.0,1145.0,1911.0,11462379.0,
758.0,4010.0,1147.0,1908.0,11462383.0,
757.0,4013.0,1151.0,1906.0,11462387.0,
756.0,4012.0,1151.0,1911.0,11462391.0,
758.0,4013.0,1153.0,1910.0,11462395.0,
759.0,4013.0,1153.0,1909.0,11462399.0,
758.0,4012.0,1150.0,1913.0,11462403.0,
756.0,4012.0,1149.0,1915.0,11462407.0,
758.0,4012.0,1144.0,1914.0,11462411.0,
758.0,4012.0,1143.0,1914.0,11462415.0,
757.0,4013.0,1140.0,1915.0,11462419.0,
756.0,4012.0,1141.0,1919.0,11462423.0,
757.0,4012.0,1140.0,1920.0,11462427.0,
758.0,4012.0,1140.0,1924.0,11462430.0,
758.0,4011.0,1137.0,1926.0,11462434.0,
758.0,4012.0,1138.0,1934.0,11462438.0,
758.0,4009.0,1144.0,1939.0,11462442.0,
757.0,4009.0,1142.0,1944.0,11462446.0,
756.0,4009.0,1150.0,1955.0,11462450.0,
758.0,4008.0,1156.0,1963.0,11462454.0,
757.0,4009.0,1167.0,1978.0,11462457.0,
758.0,4012.0,1185.0,1988.0,11462461.0,
758.0,4011.0,1206.0,1997.0,11462465.0,
757.0,4013.0,1232.0,2011.0,11462469.0,
757.0,4011.0,1262.0,2021.0,11462473.0,
757.0,4012.0,1304.0,2033.0,11462477.0,
758.0,4010.0,1351.0,2045.0,11462481.0,
757.0,4012.0,1404.0,2060.0,11462485.0,
758.0,4012.0,1466.0,2067.0,11462489.0,
758.0,4011.0,1533.0,2076.0,11462492.0,
757.0,4010.0,1608.0,2082.0,11462496.0,
758.0,4010.0,1691.0,2094.0,11462500.0,
757.0,4011.0,1783.0,2095.0,11462504.0,
757.0,4012.0,1880.0,2105.0,11462508.0,
758.0,4010.0,1981.0,2107.0,11462512.0,
758.0,4012.0,2090.0,2112.0,11462516.0,
758.0,4010.0,2201.0,2111.0,11462519.0,
757.0,4013.0,2308.0,2117.0,11462523.0,
758.0,4010.0,2418.0,2118.0,11462527.0,
758.0,4012.0,2529.0,2120.0,11462531.0,
759.0,4009.0,2636.0,2118.0,11462535.0,
758.0,4013.0,2741.0,2118.0,11462538.0,
758.0,4013.0,2841.0,2118.0,11462542.0,
757.0,4013.0,2940.0,2114.0,11462546.0,
759.0,4009.0,3035.0,2112.0,11462550.0,
759.0,4013.0,3121.0,2109.0,11462554.0,
758.0,4008.0,3199.0,2109.0,11462558.0,
759.0,4010.0,3270.0,2107.0,11462561.0,
758.0,4012.0,3337.0,2105.0,11462565.0,
758.0,4010.0,3397.0,2101.0,11462569.0,
759.0,4010.0,3448.0,2097.0,11462573.0,
759.0,4010.0,3487.0,2093.0,11462577.0,
758.0,4012.0,3519.0,2090.0,11462581.0,
758.0,4010.0,3544.0,2085.0,11462585.0,
758.0,4013.0,3557.0,2082.0,11462589.0,
759.0,4010.0,3564.0,2076.0,11462592.0,
759.0,4011.0,3559.0,2073.0,11462596.0,
758.0,4009.0,3547.0,2067.0,11462600.0,
758.0,4011.0,3528.0,2061.0,11462604.0,
758.0,4008.0,3499.0,2058.0,11462608.0,
758.0,4012.0,3470.0,2056.0,11462612.0,
760.0,4010.0,3429.0,2048.0,11462616.0,
759.0,4013.0,3390.0,2044.0,11462620.0,
758.0,4011.0,3340.0,2044.0,11462623.0,
759.0,4009.0,3291.0,2039.0,11462627.0,
760.0,4010.0,3236.0,2040.0,11462631.0,
759.0,4013.0,3180.0,2038.0,11462635.0,
758.0,4009.0,3122.0,2036.0,11462639.0,
759.0,4014.0,3066.0,2032.0,11462643.0,
758.0,4010.0,2999.0,2027.0,11462647.0,
758.0,4009.0,2937.0,2024.0,11462650.0,
759.0,4011.0,2875.0,2024.0,11462654.0,
759.0,4010.0,2810.0,2019.0,11462658.0,
758.0,4012.0,2744.0,2018.0,11462662.0,
758.0,4011.0,2681.0,2014.0,11462666.0,
759.0,4012.0,2617.0,2013.0,11462670.0,
760.0,4009.0,2554.0,2013.0,11462674.0,
760.0,4011.0,2492.0,2013.0,11462678.0,
759.0,4009.0,2429.0,2013.0,11462681.0,
759.0,4011.0,2368.0,2008.0,11462685.0,
759.0,4013.0,2311.0,2009.0,11462689.0,
759.0,4011.0,2253.0,2010.0,11462693.0,
760.0,4012.0,2197.0,2007.0,11462697.0,
759.0,4010.0,2144.0,2009.0,11462701.0,
759.0,4012.0,2093.0,2009.0,11462705.0,
759.0,4010.0,2045.0,2008.0,11462708.0,
760.0,4010.0,2001.0,2007.0,11462712.0,
761.0,4012.0,1955.0,2007.0,11462716.0,
760.0,4013.0,1916.0,2007.0,11462720.0,
760.0,4013.0,1882.0,2008.0,11462724.0,
759.0,4012.0,1847.0,2010.0,11462728.0,
760.0,4010.0,1817.0,2006.0,11462732.0,
758.0,4012.0,1793.0,2005.0,11462736.0,
760.0,4011.0,1770.0,2005.0,11462740.0,
760.0,4013.0,1749.0,2004.0,11462744.0,
761.0,4009.0,1733.0,2001.0,11462747.0,
762.0,4012.0,1722.0,2002.0,11462751.0,
762.0,4013.0,1714.0,2003.0,11462755.0,
761.0,4014.0,1710.0,2002.0,11462759.0,
760.0,4010.0,1708.0,2004.0,11462763.0,
760.0,4013.0,1709.0,2009.0,11462767.0,
761.0,4009.0,1713.0,2005.0,11462771.0,
760.0,4013.0,1720.0,2008.0,11462775.0,
761.0,4013.0,1729.0,2007.0,11462778.0,
761.0,4010.0,1743.0,2009.0,11462782.0,
761.0,4010.0,1755.0,2005.0,11462786.0,
762.0,4013.0,1768.0,2007.0,11462790.0,
762.0,4011.0,1784.0,2004.0,11462794.0,
762.0,4012.0,1797.0,2005.0,11462798.0,
762.0,4010.0,1811.0,2004.0,11462801.0,
761.0,4011.0,1829.0,2004.0,11462805.0,
762.0,4013.0,1845.0,2005.0,11462809.0,
763.0,4012.0,1860.0,2002.0,11462813.0,
763.0,4009.0,1877.0,1999.0,11462817.0,
762.0,4013.0,1894.0,1998.0,11462821.0,
762.0,4010.0,1905.0,1995.0,11462825.0,
763.0,4013.0,1918.0,1998.0,11462829.0,
763.0,4011.0,1934.0,1997.0,11462833.0,
763.0,4011.0,1943.0,1996.0,11462836.0,
762.0,4012.0,1952.0,1998.0,11462840.0,
762.0,4013.0,1960.0,2002.0,11462844.0,
763.0,4011.0,1969.0,2002.0,11462848.0,
764.0,4014.0,1970.0,2002.0,11462852.0,
764.0,4010.0,1973.0,2003.0,11462856.0,
764.0,4014.0,1974.0,2001.0,11462860.0,
764.0,4010.0,1973.0,1998.0,11462863.0,
763.0,4010.0,1968.0,1999.0,11462867.0,
763.0,4012.0,1963.0,1997.0,11462871.0,
765.0,4011.0,1958.0,1997.0,11462875.0,
764.0,4010.0,1951.0,1994.0,11462879.0,
763.0,4012.0,1937.0,1996.0,11462883.0,
763.0,4012.0,1926.0,1995.0,11462887.0,
765.0,4012.0,1916.0,1992.0,11462890.0,
765.0,4009.0,1900.0,1990.0,11462894.0,
765.0,4013.0,1883.0,1991.0,11462898.0,
764.0,4013.0,1871.0,1985.0,11462902.0,
764.0,4012.0,1854.0,1980.0,11462906.0,
765.0,4012.0,1832.0,1978.0,11462910.0,
765.0,4011.0,1816.0,1974.0,11462914.0,
765.0,4013.0,1802.0,1976.0,11462917.0,
766.0,4010.0,1784.0,1975.0,11462921.0,
764.0,4010.0,1770.0,1970.0,11462926.0,
765.0,4011.0,1754.0,1972.0,11462930.0,
765.0,4010.0,1735.0,1968.0,11462934.0,
765.0,4013.0,1719.0,1969.0,11462938.0,
765.0,4011.0,1699.0,1967.0,11462942.0,
766.0,4013.0,1684.0,1969.0,11462945.0,
766.0,4014.0,1664.0,1967.0,11462949.0,
767.0,4014.0,1639.0,1964.0,11462955.0,
766.0,4011.0,1622.0,1958.0,11462959.0,
766.0,4013.0,1605.0,1956.0,11462963.0,
766.0,4011.0,1592.0,1949.0,11462966.0,
767.0,4010.0,1575.0,1945.0,11462970.0,
767.0,4012.0,1561.0,1940.0,11462974.0,
767.0,4013.0,1547.0,1939.0,11462978.0,
767.0,4010.0,1532.0,1934.0,11462982.0,
766.0,4012.0,1518.0,1935.0,11462986.0,
768.0,4011.0,1505.0,1931.0,11462990.0,
769.0,4013.0,1492.0,1932.0,11462994.0,
767.0,4011.0,1479.0,1929.0,11462998.0,
767.0,4010.0,1466.0,1928.0,11463002.0,
767.0,4014.0,1458.0,1929.0,11463006.0,
768.0,4011.0,1448.0,1927.0,11463010.0,
768.0,4015.0,1439.0,1929.0,11463014.0,
769.0,4012.0,1431.0,1928.0,11463018.0,
769.0,4012.0,1424.0,1929.0,11463021.0,
768.0,4012.0,1420.0,1929.0,11463025.0,
769.0,4012.0,1417.0,1926.0,11463030.0,
769.0,4013.0,1418.0,1925.0,11463033.0,
770.0,4015.0,1414.0,1925.0,11463037.0,
770.0,4015.0,1412.0,1922.0,11463041.0,
769.0,4015.0,1411.0,1923.0,11463045.0,
769.0,4012.0,1412.0,1920.0,11463049.0,
770.0,4015.0,1409.0,1924.0,11463053.0,
771.0,4012.0,1412.0,1922.0,11463057.0,
770.0,4015.0,1412.0,1923.0,11463060.0,
769.0,4014.0,1414.0,1923.0,11463064.0,
770.0,4013.0,1414.0,1919.0,11463068.0,
771.0,4013.0,1417.0,1919.0,11463072.0,
772.0,4015.0,1414.0,1917.0,11463076.0,
772.0,4012.0,1413.0,1918.0,11463080.0,
770.0,4014.0,1412.0,1914.0,11463084.0,
771.0,4013.0,1413.0,1919.0,11463088.0,
772.0,4016.0,1415.0,1919.0,11463091.0,
773.0,4013.0,1416.0,1920.0,11463095.0,
772.0,4013.0,1419.0,1917.0,11463099.0,
772.0,4012.0,1420.0,1915.0,11463103.0,
771.0,4014.0,1423.0,1915.0,11463107.0,
773.0,4011.0,1424.0,1914.0,11463111.0,
776.0,4015.0,1426.0,1912.0,11463115.0,
772.0,4014.0,1429.0,1911.0,11463119.0,
773.0,4017.0,1435.0,1912.0,11463122.0,
772.0,4013.0,1438.0,1907.0,11463126.0,
773.0,4013.0,1437.0,1909.0,11463130.0,
773.0,4013.0,1439.0,1907.0,11463134.0,
774.0,4015.0,1438.0,1912.0,11463138.0,
774.0,4013.0,1439.0,1913.0,11463142.0,
773.0,4016.0,1438.0,1913.0,11463146.0,
774.0,4013.0,1438.0,1912.0,11463150.0,
775.0,4015.0,1439.0,1912.0,11463153.0,
775.0,4013.0,1438.0,1910.0,11463157.0,
774.0,4015.0,1437.0,1916.0,11463161.0,
774.0,4015.0,1437.0,1915.0,11463165.0,
774.0,4012.0,1436.0,1916.0,11463169.0,
775.0,4015.0,1440.0,1918.0,11463173.0,
775.0,4010.0,1440.0,1923.0,11463177.0,
776.0,4013.0,1438.0,1923.0,11463180.0,
776.0,4009.0,1443.0,1923.0,11463184.0,
775.0,4014.0,1443.0,1929.0,11463188.0,
777.0,4014.0,1449.0,1934.0,11463192.0,
777.0,4011.0,1455.0,1936.0,11463196.0,
777.0,4012.0,1459.0,1943.0,11463200.0,
776.0,4010.0,1462.0,1947.0,11463204.0,
776.0,4012.0,1466.0,1954.0,11463208.0,
778.0,4011.0,1470.0,1964.0,11463212.0,
779.0,4013.0,1475.0,1972.0,11463215.0,
778.0,4013.0,1481.0,1985.0,11463219.0,
777.0,4010.0,1496.0,1992.0,11463223.0,
776.0,4010.0,1506.0,2004.0,11463227.0,
778.0,4010.0,1527.0,2012.0,11463231.0,
779.0,4014.0,1551.0,2027.0,11463235.0,
779.0,4010.0,1579.0,2035.0,11463239.0,
778.0,4014.0,1618.0,2045.0,11463242.0,
778.0,4011.0,1660.0,2058.0,11463246.0,
779.0,4011.0,1712.0,2067.0,11463250.0,
779.0,4013.0,1773.0,2080.0,11463254.0,
780.0,4010.0,1840.0,2085.0,11463258.0,
778.0,4014.0,1917.0,2092.0,11463262.0,
780.0,4011.0,2005.0,2096.0,11463266.0,
780.0,4013.0,2102.0,2102.0,11463269.0,
781.0,4010.0,2204.0,2103.0,11463273.0,
780.0,4009.0,2315.0,2108.0,11463277.0,
782.0,4013.0,2433.0,2111.0,11463281.0,
780.0,4010.0,2550.0,2115.0,11463285.0,
781.0,4013.0,2682.0,2122.0,11463289.0,
782.0,4011.0,2808.0,2122.0,11463293.0,
780.0,4013.0,2936.0,2125.0,11463297.0,
782.0,4010.0,3064.0,2126.0,11463301.0,
781.0,4013.0,3189.0,2127.0,11463304.0,
782.0,4013.0,3313.0,2130.0,11463308.0,
783.0,4011.0,3435.0,2127.0,11463312.0,
784.0,4013.0,3548.0,2125.0,11463316.0,
784.0,4012.0,3663.0,2125.0,11463320.0,
782.0,4015.0,3766.0,2117.0,11463324.0,
783.0,4011.0,3865.0,2119.0,11463328.0,
783.0,4013.0,3913.0,2116.0,11463331.0,
784.0,4013.0,3914.0,2116.0,11463335.0,
784.0,4012.0,3915.0,2113.0,11463339.0,
784.0,4010.0,3914.0,2109.0,11463343.0,
783.0,4012.0,3914.0,2109.0,11463347.0,
785.0,4011.0,3914.0,2104.0,11463351.0,
785.0,4014.0,3914.0,2104.0,11463355.0,
785.0,4010.0,3914.0,2098.0,11463359.0,
784.0,4013.0,3914.0,2099.0,11463362.0,
785.0,4009.0,3914.0,2097.0,11463366.0,
784.0,4013.0,3914.0,2094.0,11463370.0,
786.0,4013.0,3915.0,2092.0,11463374.0,
786.0,4013.0,3914.0,2085.0,11463378.0,
785.0,4010.0,3914.0,2088.0,11463382.0,
785.0,4012.0,3914.0,2085.0,11463386.0,
786.0,4011.0,3914.0,2082.0,11463390.0,
787.0,4013.0,3914.0,2081.0,11463393.0,
788.0,4011.0,3914.0,2076.0,11463397.0,
787.0,4011.0,3915.0,2073.0,11463401.0,
787.0,4014.0,3913.0,2070.0,11463405.0,
788.0,4011.0,3914.0,2066.0,11463409.0,
788.0,4014.0,3915.0,2062.0,11463413.0,
787.0,4010.0,3914.0,2058.0,11463416.0,
788.0,4013.0,3913.0,2055.0,11463420.0,
788.0,4013.0,3832.0,2051.0,11463424.0,
788.0,4014.0,3763.0,2045.0,11463428.0,
788.0,4010.0,3694.0,2043.0,11463432.0,
789.0,4013.0,3619.0,2038.0,11463436.0,
789.0,4010.0,3547.0,2034.0,11463440.0,
788.0,4013.0,3473.0,2031.0,11463444.0,
788.0,4011.0,3401.0,2029.0,11463448.0,
790.0,4012.0,3325.0,2030.0,11463451.0,
790.0,4011.0,3248.0,2024.0,11463455.0,
790.0,4011.0,3174.0,2025.0,11463459.0,
789.0,4014.0,3102.0,2023.0,11463463.0,
790.0,4012.0,3028.0,2020.0,11463467.0,
791.0,4013.0,2952.0,2019.0,11463471.0,
792.0,4010.0,2884.0,2016.0,11463475.0,
791.0,4014.0,2815.0,2015.0,11463479.0,
790.0,4010.0,2752.0,2011.0,11463482.0,
790.0,4011.0,2687.0,2009.0,11463486.0,
791.0,4014.0,2627.0,2005.0,11463490.0,
791.0,4011.0,2568.0,2003.0,11463494.0,
792.0,4011.0,2519.0,2001.0,11463498.0,
789.0,4014.0,2466.0,2004.0,11463502.0,
791.0,4011.0,2423.0,1999.0,11463506.0,
792.0,4012.0,2381.0,2000.0,11463510.0,
793.0,4014.0,2346.0,2002.0,11463514.0,
792.0,4013.0,2314.0,2000.0,11463518.0,
792.0,4013.0,2290.0,1996.0,11463522.0,
792.0,4011.0,2269.0,1997.0,11463526.0,
793.0,4014.0,2255.0,1997.0,11463530.0,
793.0,4011.0,2247.0,1996.0,11463534.0,
794.0,4011.0,2239.0,1996.0,11463538.0,
792.0,4009.0,2237.0,1992.0,11463541.0,
793.0,4014.0,2236.0,1996.0,11463545.0,
793.0,4012.0,2238.0,1990.0,11463549.0,
794.0,4013.0,2244.0,1991.0,11463553.0,
794.0,4013.0,2253.0,1991.0,11463557.0,
793.0,4011.0,2266.0,1991.0,11463561.0,
794.0,4014.0,2278.0,1992.0,11463565.0,
794.0,4012.0,2292.0,1990.0,11463569.0,
795.0,4013.0,2301.0,1995.0,11463572.0,
796.0,4011.0,2319.0,1995.0,11463576.0,
795.0,4014.0,2329.0,2000.0,11463580.0,
796.0,4012.0,2343.0,2001.0,11463584.0,
795.0,4013.0,2353.0,2006.0,11463588.0,
795.0,4012.0,2366.0,2004.0,11463592.0,
796.0,4014.0,2377.0,2011.0,11463596.0,
795.0,4010.0,2387.0,2009.0,11463600.0,
796.0,4014.0,2398.0,2009.0,11463603.0,
795.0,4010.0,2403.0,2008.0,11463607.0,
796.0,4015.0,2407.0,2012.0,11463611.0,
796.0,4011.0,2411.0,2007.0,11463615.0,
797.0,4013.0,2411.0,2007.0,11463619.0,
796.0,4011.0,2416.0,2006.0,11463623.0,
798.0,4012.0,2413.0,2005.0,11463627.0,
797.0,4009.0,2405.0,2002.0,11463631.0,
799.0,4014.0,2402.0,2004.0,11463634.0,
796.0,4010.0,2393.0,2000.0,11463638.0,
797.0,4011.0,2381.0,1999.0,11463642.0,
796.0,4012.0,2367.0,1996.0,11463646.0,
797.0,4013.0,2352.0,1997.0,11463650.0,
798.0,4011.0,2336.0,1993.0,11463654.0,
798.0,4013.0,2319.0,1993.0,11463658.0,
798.0,4012.0,2300.0,1994.0,11463662.0,
798.0,4014.0,2276.0,1993.0,11463665.0,
798.0,4010.0,2258.0,1992.0,11463669.0,
799.0,4009.0,2237.0,1995.0,11463673.0,
799.0,4011.0,2219.0,1992.0,11463677.0,
799.0,4014.0,2195.0,1996.0,11463681.0,
798.0,4012.0,2174.0,1989.0,11463685.0,
799.0,4013.0,2150.0,1989.0,11463689.0,
799.0,4011.0,2129.0,1984.0,11463693.0,
800.0,4013.0,2106.0,1978.0,11463696.0,
798.0,4015.0,2081.0,1976.0,11463700.0,
800.0,4010.0,2055.0,1970.0,11463704.0,
798.0,4013.0,2029.0,1971.0,11463708.0,
800.0,4010.0,1999.0,1965.0,11463712.0,
800.0,4010.0,1973.0,1963.0,11463716.0,
800.0,4014.0,1948.0,1957.0,11463720.0,
799.0,4012.0,1922.0,1957.0,11463724.0,
799.0,4013.0,1898.0,1955.0,11463727.0,
800.0,4010.0,1870.0,1950.0,11463731.0,
800.0,4012.0,1844.0,1949.0,11463735.0,
800.0,4014.0,1820.0,1948.0,11463739.0,
801.0,4014.0,1795.0,1948.0,11463743.0,
800.0,4010.0,1770.0,1944.0,11463747.0,
801.0,4016.0,1747.0,1944.0,11463751.0,
800.0,4010.0,1732.0,1941.0,11463755.0,
801.0,4013.0,1712.0,1941.0,11463759.0,
799.0,4011.0,1695.0,1938.0,11463762.0,
800.0,4014.0,1679.0,1938.0,11463766.0,
800.0,4014.0,1661.0,1939.0,11463770.0,
801.0,4016.0,1645.0,1939.0,11463774.0,
800.0,4010.0,1629.0,1933.0,11463778.0,
801.0,4012.0,1616.0,1931.0,11463782.0,
800.0,4012.0,1605.0,1929.0,11463786.0,
801.0,4015.0,1593.0,1929.0,11463790.0,
802.0,4011.0,1582.0,1931.0,11463793.0,
802.0,4011.0,1573.0,1930.0,11463797.0,
802.0,4014.0,1563.0,1929.0,11463801.0,
801.0,4013.0,1555.0,1931.0,11463805.0,
801.0,4011.0,1547.0,1930.0,11463809.0,
803.0,4014.0,1538.0,1935.0,11463813.0,
802.0,4012.0,1533.0,1934.0,11463817.0,
802.0,4014.0,1526.0,1937.0,11463821.0,
801.0,4012.0,1522.0,1936.0,11463824.0,
801.0,4012.0,1522.0,1939.0,11463828.0,
803.0,4013.0,1522.0,1940.0,11463832.0,
803.0,4011.0,1519.0,1944.0,11463836.0,
802.0,4011.0,1518.0,1943.0,11463840.0,
802.0,4014.0,1517.0,1945.0,11463844.0,
802.0,4012.0,1518.0,1946.0,11463848.0,
802.0,4014.0,1518.0,1948.0,11463852.0,
803.0,4012.0,1519.0,1947.0,11463856.0,
803.0,4014.0,1519.0,1948.0,11463859.0,
802.0,4011.0,1521.0,1943.0,11463863.0,
802.0,4011.0,1522.0,1944.0,11463867.0,
803.0,4013.0,1525.0,1945.0,11463871.0,
803.0,4011.0,1526.0,1938.0,11463875.0,
803.0,4014.0,1526.0,1938.0,11463879.0,
803.0,4010.0,1528.0,1934.0,11463883.0,
802.0,4012.0,1527.0,1935.0,11463887.0,
804.0,4010.0,1529.0,1930.0,11463890.0,
804.0,4012.0,1526.0,1929.0,11463894.0,
803.0,4011.0,1527.0,1933.0,11463898.0,
803.0,4014.0,1528.0,1930.0,11463902.0,
803.0,4011.0,1532.0,1928.0,11463906.0,
804.0,4012.0,1531.0,1936.0,11463910.0,
805.0,4012.0,1531.0,1934.0,11463914.0,
805.0,4014.0,1530.0,1934.0,11463917.0,
803.0,4010.0,1531.0,1937.0,11463921.0,
803.0,4012.0,1531.0,1940.0,11463925.0,
804.0,4013.0,1530.0,1943.0,11463929.0,
806.0,4011.0,1531.0,1940.0,11463933.0,
804.0,4014.0,1529.0,1945.0,11463937.0,
804.0,4012.0,1532.0,1948.0,11463941.0,
802.0,4014.0,1533.0,1952.0,11463945.0,
804.0,4010.0,1533.0,1954.0,11463948.0,
804.0,4014.0,1535.0,1962.0,11463952.0,
804.0,4011.0,1538.0,1968.0,11463956.0,
804.0,4011.0,1540.0,1974.0,11463960.0,
804.0,4015.0,1544.0,1981.0,11463964.0,
804.0,4012.0,1554.0,1992.0,11463970.0,
805.0,4013.0,1563.0,2002.0,11463973.0,
806.0,4011.0,1581.0,2011.0,11463977.0,
804.0,4014.0,1595.0,2022.0,11463981.0,
803.0,4012.0,1619.0,2031.0,11463985.0,
804.0,4014.0,1645.0,2043.0,11463989.0,
805.0,4012.0,1679.0,2050.0,11463993.0,
805.0,4012.0,1722.0,2060.0,11463997.0,
804.0,4011.0,1773.0,2069.0,11464001.0,
804.0,4011.0,1832.0,2077.0,11464004.0,
805.0,4014.0,1902.0,2087.0,11464008.0,
806.0,4014.0,1984.0,2093.0,11464012.0,
806.0,4012.0,2080.0,2098.0,11464016.0,
805.0,4010.0,2187.0,2104.0,11464020.0,
805.0,4011.0,2300.0,2105.0,11464024.0,
804.0,4011.0,2425.0,2111.0,11464028.0,
806.0,4011.0,2559.0,2118.0,11464032.0,
808.0,4011.0,2705.0,2115.0,11464036.0,
805.0,4011.0,2850.0,2121.0,11464039.0,
805.0,4014.0,3003.0,2125.0,11464043.0,
805.0,4012.0,3160.0,2124.0,11464047.0,
806.0,4016.0,3319.0,2125.0,11464051.0,
807.0,4014.0,3478.0,2125.0,11464055.0,
806.0,4014.0,3633.0,2125.0,11464059.0,
805.0,4012.0,3788.0,2126.0,11464063.0,
806.0,4015.0,3911.0,2124.0,11464066.0,
806.0,4014.0,3915.0,2125.0,11464070.0,
807.0,4012.0,3915.0,2121.0,11464074.0,
806.0,4015.0,3914.0,2126.0,11464078.0,
806.0,4014.0,3914.0,2126.0,11464082.0,
806.0,4015.0,3914.0,2124.0,11464086.0,
807.0,4014.0,3916.0,2123.0,11464090.0,
808.0,4014.0,3916.0,2125.0,11464094.0,
807.0,4014.0,3914.0,2121.0,11464098.0,
807.0,4014.0,3914.0,2121.0,11464101.0,
807.0,4012.0,3915.0,2121.0,11464105.0,
807.0,4014.0,3915.0,2122.0,11464109.0,
807.0,4013.0,3915.0,2118.0,11464113.0,
808.0,4011.0,3915.0,2120.0,11464117.0,
806.0,4012.0,3914.0,2115.0,11464121.0,
806.0,4012.0,3915.0,2111.0,11464125.0,
807.0,4011.0,3915.0,2109.0,11464129.0,
807.0,4010.0,3915.0,2110.0,11464132.0,
808.0,4011.0,3916.0,2106.0,11464136.0,
806.0,4014.0,3914.0,2108.0,11464140.0,
806.0,4014.0,3915.0,2107.0,11464144.0,
807.0,4013.0,3915.0,2106.0,11464148.0,
807.0,4014.0,3914.0,2102.0,11464152.0,
807.0,4014.0,3915.0,2097.0,11464156.0,
807.0,4014.0,3916.0,2096.0,11464159.0,
805.0,4011.0,3915.0,2091.0,11464163.0,
807.0,4011.0,3915.0,2085.0,11464167.0,
808.0,4011.0,3916.0,2078.0,11464171.0,
808.0,4013.0,3915.0,2071.0,11464175.0,
807.0,4012.0,3915.0,2065.0,11464179.0,
806.0,4010.0,3914.0,2059.0,11464183.0,
807.0,4010.0,3916.0,2049.0,11464187.0,
807.0,4010.0,3914.0,2043.0,11464190.0,
808.0,4011.0,3916.0,2038.0,11464194.0,
808.0,4013.0,3914.0,2036.0,11464198.0,
806.0,4010.0,3915.0,2030.0,11464202.0,
807.0,4011.0,3916.0,2025.0,11464206.0,
807.0,4012.0,3915.0,2024.0,11464210.0,
808.0,4011.0,3914.0,2023.0,11464214.0,
808.0,4011.0,3916.0,2019.0,11464218.0,
808.0,4012.0,3914.0,2022.0,11464221.0,
806.0,4012.0,3916.0,2020.0,11464225.0,
808.0,4011.0,3915.0,2017.0,11464229.0,
808.0,4014.0,3909.0,2020.0,11464233.0,
807.0,4015.0,3754.0,2021.0,11464237.0,
807.0,4013.0,3629.0,2024.0,11464241.0,
807.0,4013.0,3505.0,2022.0,11464245.0,
807.0,4014.0,3384.0,2022.0,11464249.0,
808.0,4013.0,3268.0,2024.0,11464252.0,
807.0,4012.0,3158.0,2022.0,11464256.0,
806.0,4015.0,3052.0,2028.0,11464260.0,
806.0,4011.0,2949.0,2030.0,11464264.0,
806.0,4011.0,2850.0,2033.0,11464268.0,
807.0,4010.0,2757.0,2031.0,11464272.0,
807.0,4012.0,2671.0,2032.0,11464276.0,
808.0,4012.0,2592.0,2034.0,11464280.0,
807.0,4012.0,2518.0,2033.0,11464283.0,
806.0,4010.0,2453.0,2034.0,11464287.0,
807.0,4011.0,2390.0,2038.0,11464291.0,
808.0,4013.0,2339.0,2041.0,11464295.0,
807.0,4013.0,2298.0,2041.0,11464299.0,
807.0,4013.0,2259.0,2039.0,11464303.0,
807.0,4014.0,2226.0,2040.0,11464307.0,
807.0,4014.0,2195.0,2046.0,11464311.0,
808.0,4014.0,2172.0,2045.0,11464314.0,
807.0,4010.0,2154.0,2047.0,11464318.0,
806.0,4011.0,2139.0,2049.0,11464322.0,
807.0,4011.0,2128.0,2047.0,11464326.0,
807.0,4016.0,2124.0,2051.0,11464330.0,
807.0,4010.0,2119.0,2051.0,11464334.0,
807.0,4010.0,2121.0,2048.0,11464338.0,
805.0,4011.0,2120.0,2044.0,11464342.0,
807.0,4009.0,2126.0,2041.0,11464346.0,
807.0,4011.0,2132.0,2039.0,11464349.0,
807.0,4011.0,2139.0,2037.0,11464353.0,
808.0,4010.0,2147.0,2030.0,11464357.0,
808.0,4013.0,2152.0,2032.0,11464361.0,
806.0,4012.0,2157.0,2025.0,11464365.0,
806.0,4011.0,2165.0,2021.0,11464369.0,
806.0,4012.0,2167.0,2014.0,11464373.0,
808.0,4009.0,2166.0,2010.0,11464377.0,
807.0,4011.0,2163.0,2012.0,11464380.0,
805.0,4012.0,2161.0,2004.0,11464384.0,
806.0,4013.0,2153.0,2002.0,11464388.0,
807.0,4011.0,2152.0,1997.0,11464392.0,
806.0,4011.0,2147.0,1996.0,11464396.0,
807.0,4011.0,2136.0,1993.0,11464400.0,
806.0,4008.0,2127.0,1990.0,11464404.0,
806.0,4011.0,2116.0,1988.0,11464408.0,
806.0,4010.0,2104.0,1989.0,11464412.0,
807.0,4012.0,2088.0,1983.0,11464415.0,
807.0,4011.0,2071.0,1983.0,11464419.0,
806.0,4012.0,2056.0,1981.0,11464423.0,
805.0,4014.0,2039.0,1982.0,11464427.0,
807.0,4012.0,2019.0,1975.0,11464431.0,
808.0,4013.0,1999.0,1978.0,11464435.0,
805.0,4010.0,1981.0,1972.0,11464438.0,
806.0,4013.0,1955.0,1974.0,11464442.0,
806.0,4013.0,1936.0,1973.0,11464446.0,
806.0,4014.0,1910.0,1973.0,11464450.0,
808.0,4011.0,1886.0,1968.0,11464454.0,
806.0,4013.0,1862.0,1967.0,11464458.0,
807.0,4012.0,1835.0,1964.0,11464462.0,
806.0,4013.0,1807.0,1964.0,11464466.0,
806.0,4011.0,1781.0,1961.0,11464469.0,
807.0,4011.0,1756.0,1960.0,11464473.0,
807.0,4013.0,1730.0,1957.0,11464477.0,
806.0,4013.0,1706.0,1956.0,11464481.0,
805.0,4012.0,1685.0,1953.0,11464485.0,
805.0,4011.0,1662.0,1950.0,11464489.0,
806.0,4014.0,1637.0,1951.0,11464493.0,
806.0,4011.0,1621.0,1953.0,11464497.0,
806.0,4014.0,1603.0,1955.0,11464501.0,
805.0,4012.0,1585.0,1955.0,11464504.0,
807.0,4014.0,1564.0,1957.0,11464508.0,
807.0,4013.0,1545.0,1957.0,11464512.0,
806.0,4014.0,1528.0,1959.0,11464516.0,
806.0,4013.0,1510.0,1958.0,11464520.0,
806.0,4011.0,1493.0,1957.0,11464524.0,
806.0,4013.0,1476.0,1956.0,11464528.0,
807.0,4010.0,1462.0,1957.0,11464532.0,
807.0,4014.0,1449.0,1954.0,11464536.0,
806.0,4010.0,1438.0,1951.0,11464540.0,
805.0,4014.0,1424.0,1949.0,11464543.0,
805.0,4011.0,1415.0,1946.0,11464547.0,
806.0,4011.0,1409.0,1944.0,11464551.0,
807.0,4011.0,1403.0,1938.0,11464555.0,
806.0,4014.0,1395.0,1938.0,11464559.0,
805.0,4012.0,1395.0,1935.0,11464563.0,
806.0,4013.0,1387.0,1934.0,11464567.0,
807.0,4011.0,1387.0,1933.0,11464570.0,
806.0,4012.0,1381.0,1933.0,11464574.0,
806.0,4014.0,1380.0,1933.0,11464578.0,
805.0,4010.0,1382.0,1932.0,11464582.0,
806.0,4011.0,1379.0,1930.0,11464586.0,
807.0,4013.0,1379.0,1930.0,11464590.0,
806.0,4010.0,1383.0,1930.0,11464594.0,
807.0,4014.0,1385.0,1931.0,11464598.0,
806.0,4011.0,1389.0,1930.0,11464601.0,
804.0,4012.0,1388.0,1930.0,11464605.0,
806.0,4014.0,1393.0,1933.0,11464609.0,
806.0,4012.0,1397.0,1927.0,11464613.0,
806.0,4014.0,1402.0,1924.0,11464617.0,
805.0,4011.0,1406.0,1924.0,11464621.0,
806.0,4014.0,1411.0,1927.0,11464624.0,
805.0,4014.0,1411.0,1927.0,11464628.0,
807.0,4014.0,1418.0,1926.0,11464632.0,
806.0,4012.0,1420.0,1926.0,11464636.0,
805.0,4010.0,1428.0,1929.0,11464640.0,
804.0,4012.0,1430.0,1929.0,11464644.0,
804.0,4010.0,1432.0,1932.0,11464648.0,
806.0,4014.0,1434.0,1935.0,11464652.0,
807.0,4011.0,1432.0,1936.0,11464655.0,
805.0,4011.0,1435.0,1940.0,11464659.0,
805.0,4013.0,1432.0,1943.0,11464663.0,
804.0,4010.0,1430.0,1941.0,11464667.0,
807.0,4013.0,1430.0,1948.0,11464671.0,
806.0,4011.0,1429.0,1950.0,11464675.0,
805.0,4014.0,1427.0,1955.0,11464678.0,
805.0,4010.0,1423.0,1957.0,11464682.0,
805.0,4011.0,1422.0,1963.0,11464686.0,
806.0,4011.0,1421.0,1970.0,11464690.0,
806.0,4013.0,1416.0,1978.0,11464694.0,
806.0,4012.0,1416.0,1983.0,11464698.0,
805.0,4014.0,1414.0,1994.0,11464702.0,
805.0,4009.0,1417.0,1995.0,11464706.0,
805.0,4016.0,1421.0,2008.0,11464709.0,
806.0,4013.0,1430.0,2018.0,11464713.0,
806.0,4014.0,1445.0,2028.0,11464717.0,
804.0,4013.0,1463.0,2037.0,11464721.0,
805.0,4010.0,1487.0,2045.0,11464725.0,
805.0,4013.0,1518.0,2054.0,11464729.0,
806.0,4012.0,1556.0,2066.0,11464733.0,
806.0,4014.0,1609.0,2074.0,11464736.0,
804.0,4010.0,1670.0,2083.0,11464740.0,
804.0,4012.0,1741.0,2096.0,11464744.0,
805.0,4012.0,1826.0,2105.0,11464748.0,
806.0,4014.0,1921.0,2116.0,11464752.0,
806.0,4012.0,2026.0,2121.0,11464756.0,
806.0,4013.0,2152.0,2131.0,11464760.0,
805.0,4015.0,2279.0,2134.0,11464764.0,
805.0,4013.0,2418.0,2141.0,11464767.0,
806.0,4012.0,2570.0,2143.0,11464771.0,
806.0,4014.0,2730.0,2146.0,11464775.0,
806.0,4012.0,2903.0,2151.0,11464779.0,
806.0,4015.0,3073.0,2151.0,11464783.0,
805.0,4013.0,3249.0,2152.0,11464787.0,
806.0,4013.0,3424.0,2153.0,11464791.0,
806.0,4013.0,3602.0,2153.0,11464795.0,
806.0,4014.0,3778.0,2153.0,11464798.0,
806.0,4011.0,3913.0,2151.0,11464802.0,
805.0,4010.0,3915.0,2152.0,11464806.0,
806.0,4014.0,3914.0,2150.0,11464810.0,
806.0,4009.0,3916.0,2146.0,11464814.0,
805.0,4012.0,3915.0,2146.0,11464818.0,
806.0,4010.0,3916.0,2144.0,11464822.0,
806.0,4011.0,3915.0,2140.0,11464826.0,
806.0,4011.0,3915.0,2136.0,11464830.0,
806.0,4010.0,3916.0,2136.0,11464833.0,
806.0,4011.0,3915.0,2132.0,11464838.0,
805.0,4011.0,3914.0,2127.0,11464842.0,
804.0,4013.0,3916.0,2126.0,11464846.0,
806.0,4013.0,3915.0,2121.0,11464850.0,
807.0,4014.0,3915.0,2114.0,11464854.0,
806.0,4013.0,3916.0,2109.0,11464858.0,
807.0,4014.0,3917.0,2103.0,11464862.0,
806.0,4013.0,3916.0,2096.0,11464865.0,
806.0,4012.0,3917.0,2092.0,11464869.0,
805.0,4013.0,3917.0,2087.0,11464873.0,
807.0,4009.0,3916.0,2081.0,11464877.0,
805.0,4010.0,3916.0,2080.0,11464881.0,
806.0,4011.0,3916.0,2073.0,11464885.0,
805.0,4012.0,3915.0,2068.0,11464889.0,
807.0,4011.0,3915.0,2064.0,11464892.0,
807.0,4010.0,3915.0,2061.0,11464896.0,
806.0,4013.0,3916.0,2056.0,11464900.0,
806.0,4013.0,3916.0,2054.0,11464904.0,
806.0,4014.0,3916.0,2051.0,11464908.0,
808.0,4014.0,3916.0,2047.0,11464912.0,
808.0,4014.0,3915.0,2043.0,11464916.0,
807.0,4013.0,3914.0,2040.0,11464920.0,
807.0,4010.0,3917.0,2036.0,11464924.0,
806.0,4011.0,3917.0,2034.0,11464928.0,
806.0,4011.0,3916.0,2033.0,11464932.0,
808.0,4010.0,3916.0,2027.0,11464936.0,
807.0,4012.0,3915.0,2023.0,11464940.0,
807.0,4010.0,3916.0,2026.0,11464943.0,
806.0,4014.0,3916.0,2022.0,11464947.0,
808.0,4010.0,3916.0,2022.0,11464951.0,
808.0,4010.0,3845.0,2019.0,11464955.0,
807.0,4014.0,3696.0,2023.0,11464959.0,
807.0,4014.0,3543.0,2023.0,11464963.0,
807.0,4014.0,3388.0,2021.0,11464967.0,
807.0,4014.0,3237.0,2021.0,11464971.0,
808.0,4014.0,3086.0,2024.0,11464975.0,
807.0,4013.0,2939.0,2024.0,11464979.0,
806.0,4013.0,2799.0,2024.0,11464982.0,
808.0,4011.0,2663.0,2025.0,11464986.0,
808.0,4015.0,2528.0,2030.0,11464990.0,
808.0,4010.0,2406.0,2031.0,11464994.0,
810.0,4011.0,2292.0,2030.0,11464998.0,
808.0,4011.0,2184.0,2030.0,11465002.0,
807.0,4064.0,2086.0,2032.0,11465005.0,
808.0,4012.0,1998.0,2032.0,11465009.0,
808.0,4011.0,1916.0,2031.0,11465013.0,
809.0,4013.0,1850.0,2035.0,11465017.0,
807.0,4011.0,1789.0,2036.0,11465021.0,
807.0,4012.0,1735.0,2036.0,11465025.0,
807.0,4011.0,1692.0,2035.0,11465029.0,
809.0,4013.0,1658.0,2034.0,11465033.0,
809.0,4011.0,1629.0,2034.0,11465036.0,
808.0,4014.0,1611.0,2034.0,11465040.0,
808.0,4014.0,1598.0,2036.0,11465044.0,
807.0,4013.0,1590.0,2032.0,11465048.0,
807.0,4011.0,1590.0,2032.0,11465052.0,
808.0,4012.0,1594.0,2029.0,11465056.0,
809.0,4010.0,1603.0,2031.0,11465060.0,
809.0,4014.0,1613.0,2033.0,11465064.0,
809.0,4012.0,1628.0,2029.0,11465068.0,
809.0,4014.0,1645.0,2030.0,11465071.0,
809.0,4012.0,1665.0,2030.0,11465075.0,
810.0,4013.0,1684.0,2032.0,11465079.0,
808.0,4013.0,1706.0,2031.0,11465083.0,
809.0,4011.0,1729.0,2031.0,11465087.0,
810.0,4014.0,1756.0,2035.0,11465091.0,
811.0,4011.0,1778.0,2033.0,11465095.0,
810.0,4013.0,1797.0,2033.0,11465099.0,
809.0,4010.0,1816.0,2033.0,11465102.0,
809.0,4011.0,1834.0,2030.0,11465106.0,
810.0,4013.0,1841.0,2035.0,11465110.0,
810.0,4014.0,1851.0,2033.0,11465114.0,
811.0,4011.0,1858.0,2031.0,11465118.0,
810.0,4014.0,1863.0,2033.0,11465122.0,
808.0,4011.0,1867.0,2029.0,11465126.0,
810.0,4013.0,1867.0,2035.0,11465130.0,
811.0,4011.0,1870.0,2029.0,11465133.0,
810.0,4011.0,1869.0,2025.0,11465137.0,
810.0,4011.0,1862.0,2024.0,11465141.0,
809.0,4012.0,1857.0,2022.0,11465145.0,
810.0,4011.0,1845.0,2020.0,11465149.0,
812.0,4013.0,1835.0,2020.0,11465153.0,
811.0,4011.0,1816.0,2017.0,11465157.0,
811.0,4012.0,1800.0,2018.0,11465161.0,
810.0,4016.0,1780.0,2013.0,11465165.0,
809.0,4012.0,1757.0,2014.0,11465168.0,
812.0,4013.0,1732.0,2013.0,11465172.0,
812.0,4011.0,1708.0,2008.0,11465176.0,
811.0,4011.0,1682.0,2007.0,11465180.0,
810.0,4014.0,1656.0,2003.0,11465184.0,
810.0,4012.0,1622.0,2002.0,11465188.0,
812.0,4014.0,1597.0,1999.0,11465192.0,
813.0,4009.0,1567.0,1995.0,11465195.0,
811.0,4011.0,1542.0,1994.0,11465199.0,
811.0,4011.0,1515.0,1991.0,11465203.0,
810.0,4013.0,1487.0,1989.0,11465207.0,
812.0,4014.0,1460.0,1987.0,11465211.0,
811.0,4013.0,1433.0,1988.0,11465215.0,
812.0,4016.0,1411.0,1986.0,11465219.0,
811.0,4011.0,1386.0,1980.0,11465223.0,
811.0,4012.0,1361.0,1981.0,11465227.0,
812.0,4011.0,1341.0,1974.0,11465231.0,
813.0,4013.0,1319.0,1979.0,11465235.0,
812.0,4011.0,1300.0,1978.0,11465238.0,
810.0,4011.0,1285.0,1977.0,11465242.0,
811.0,4014.0,1265.0,1977.0,11465246.0,
811.0,4014.0,1251.0,1975.0,11465250.0,
813.0,4010.0,1233.0,1972.0,11465254.0,
812.0,4014.0,1217.0,1975.0,11465258.0,
811.0,4010.0,1201.0,1970.0,11465262.0,
812.0,4014.0,1188.0,1969.0,11465266.0,
812.0,4009.0,1172.0,1966.0,11465270.0,
814.0,4014.0,1164.0,1970.0,11465274.0,
812.0,4010.0,1155.0,1968.0,11465277.0,
812.0,4013.0,1143.0,1965.0,11465281.0,
811.0,4015.0,1137.0,1962.0,11465285.0,
812.0,4013.0,1130.0,1960.0,11465289.0,
812.0,4011.0,1126.0,1958.0,11465293.0,
813.0,4014.0,1121.0,1958.0,11465297.0,
813.0,4011.0,1117.0,1952.0,11465301.0,
812.0,4014.0,1113.0,1953.0,11465305.0,
812.0,4011.0,1111.0,1953.0,11465309.0,
813.0,4014.0,1108.0,1950.0,11465312.0,
813.0,4010.0,1105.0,1949.0,11465316.0,
813.0,4013.0,1101.0,1951.0,11465320.0,
813.0,4013.0,1101.0,1951.0,11465324.0,
812.0,4014.0,1103.0,1949.0,11465328.0,
814.0,4012.0,1109.0,1951.0,11465332.0,
813.0,4014.0,1110.0,1955.0,11465336.0,
812.0,4011.0,1121.0,1952.0,11465340.0,
813.0,4014.0,1129.0,1955.0,11465343.0,
813.0,4011.0,1138.0,1954.0,11465347.0,
814.0,4013.0,1148.0,1955.0,11465351.0,
814.0,4014.0,1156.0,1957.0,11465356.0,
814.0,4010.0,1164.0,1954.0,11465360.0,
813.0,4014.0,1172.0,1953.0,11465363.0,
813.0,4012.0,1179.0,1956.0,11465367.0,
814.0,4014.0,1186.0,1951.0,11465371.0,
814.0,4014.0,1192.0,1952.0,11465375.0,
814.0,4012.0,1205.0,1952.0,11465379.0,
812.0,4012.0,1212.0,1948.0,11465383.0,
814.0,4012.0,1220.0,1947.0,11465387.0,
815.0,4012.0,1230.0,1943.0,11465391.0,
815.0,4014.0,1239.0,1937.0,11465394.0,
814.0,4013.0,1247.0,1938.0,11465398.0,
814.0,4012.0,1255.0,1939.0,11465402.0,
814.0,4014.0,1260.0,1938.0,11465406.0,
815.0,4014.0,1267.0,1940.0,11465410.0,
815.0,4011.0,1277.0,1939.0,11465414.0,
815.0,4013.0,1282.0,1944.0,11465418.0,
814.0,4010.0,1282.0,1943.0,11465422.0,
815.0,4014.0,1288.0,1944.0,11465425.0,
814.0,4010.0,1289.0,1946.0,11465429.0,
815.0,4013.0,1293.0,1946.0,11465433.0,
815.0,4010.0,1288.0,1949.0,11465437.0,
814.0,4014.0,1288.0,1951.0,11465441.0,
814.0,4012.0,1291.0,1952.0,11465445.0,
814.0,4014.0,1288.0,1960.0,11465449.0,
815.0,4012.0,1290.0,1964.0,11465452.0,
815.0,4011.0,1297.0,1972.0,11465456.0,
816.0,4011.0,1295.0,1979.0,11465460.0,
814.0,4012.0,1302.0,1993.0,11465464.0,
815.0,4011.0,1306.0,2003.0,11465468.0,
816.0,4014.0,1312.0,2014.0,11465472.0,
816.0,4011.0,1327.0,2023.0,11465476.0,
815.0,4014.0,1347.0,2038.0,11465480.0,
815.0,4011.0,1378.0,2047.0,11465484.0,
814.0,4014.0,1412.0,2058.0,11465488.0,
816.0,4013.0,1452.0,2068.0,11465492.0,
816.0,4013.0,1504.0,2082.0,11465495.0,
816.0,4012.0,1566.0,2094.0,11465499.0,
815.0,4011.0,1640.0,2100.0,11465503.0,
815.0,4014.0,1730.0,2110.0,11465507.0,
817.0,4011.0,1828.0,2117.0,11465511.0,
817.0,4010.0,1940.0,2123.0,11465515.0,
816.0,4011.0,2069.0,2132.0,11465519.0,
815.0,4010.0,2207.0,2133.0,11465523.0,
816.0,4011.0,2358.0,2138.0,11465526.0,
816.0,4012.0,2522.0,2141.0,11465530.0,
816.0,4011.0,2691.0,2142.0,11465534.0,
815.0,4014.0,2873.0,2146.0,11465538.0,
815.0,4014.0,3056.0,2150.0,11465542.0,
815.0,4014.0,3242.0,2152.0,11465546.0,
816.0,4013.0,3432.0,2153.0,11465550.0,
818.0,4014.0,3616.0,2153.0,11465554.0,
816.0,4013.0,3800.0,2155.0,11465557.0,
816.0,4010.0,3914.0,2150.0,11465561.0,
815.0,4010.0,3915.0,2148.0,11465565.0,
816.0,4012.0,3917.0,2149.0,11465569.0,
818.0,4012.0,3916.0,2142.0,11465573.0,
818.0,4010.0,3916.0,2137.0,11465577.0,
817.0,4011.0,3916.0,2136.0,11465581.0,
816.0,4013.0,3915.0,2129.0,11465585.0,
817.0,4012.0,3916.0,2127.0,11465589.0,
818.0,4011.0,3916.0,2122.0,11465593.0,
817.0,4011.0,3916.0,2118.0,11465596.0,
817.0,4011.0,3916.0,2118.0,11465600.0,
817.0,4013.0,3916.0,2117.0,11465604.0,
817.0,4010.0,3915.0,2117.0,11465608.0,
818.0,4011.0,3916.0,2112.0,11465612.0,
817.0,4011.0,3916.0,2109.0,11465616.0,
817.0,4011.0,3916.0,2110.0,11465620.0,
817.0,4012.0,3916.0,2110.0,11465623.0,
818.0,4011.0,3916.0,2105.0,11465627.0,
818.0,4011.0,3916.0,2101.0,11465631.0,
818.0,4015.0,3917.0,2100.0,11465635.0,
817.0,4014.0,3915.0,2097.0,11465639.0,
817.0,4013.0,3916.0,2094.0,11465643.0,
817.0,4014.0,3916.0,2089.0,11465647.0,
819.0,4013.0,3914.0,2086.0,11465651.0,
818.0,4064.0,3916.0,2081.0,11465654.0,
817.0,4011.0,3915.0,2076.0,11465658.0,
817.0,4011.0,3915.0,2072.0,11465662.0,
818.0,4013.0,3916.0,2069.0,11465666.0,
818.0,4012.0,3916.0,2067.0,11465670.0,
818.0,4013.0,3915.0,2062.0,11465674.0,
818.0,4017.0,3915.0,2059.0,11465678.0,
817.0,4014.0,3916.0,2056.0,11465682.0,
817.0,4014.0,3916.0,2051.0,11465685.0,
817.0,4014.0,3914.0,2049.0,11465689.0,
818.0,4014.0,3915.0,2045.0,11465693.0,
818.0,4013.0,3915.0,2048.0,11465697.0,
817.0,4010.0,3758.0,2048.0,11465701.0,
817.0,4010.0,3599.0,2042.0,11465705.0,
818.0,4011.0,3438.0,2043.0,11465709.0,
818.0,4010.0,3275.0,2044.0,11465713.0,
817.0,4011.0,3112.0,2038.0,11465717.0,
818.0,4011.0,2952.0,2045.0,11465721.0,
818.0,4011.0,2801.0,2041.0,11465724.0,
817.0,4012.0,2650.0,2045.0,11465728.0,
819.0,4014.0,2505.0,2046.0,11465732.0,
818.0,4014.0,2362.0,2046.0,11465736.0,
818.0,4014.0,2237.0,2046.0,11465740.0,
817.0,4014.0,2111.0,2045.0,11465744.0,
817.0,4014.0,1997.0,2048.0,11465748.0,
819.0,4014.0,1886.0,2047.0,11465751.0,
819.0,4014.0,1791.0,2042.0,11465755.0,
818.0,4013.0,1705.0,2043.0,11465759.0,
818.0,4011.0,1628.0,2044.0,11465763.0,
818.0,4013.0,1562.0,2048.0,11465767.0,
819.0,4013.0,1507.0,2049.0,11465771.0,
820.0,4014.0,1457.0,2047.0,11465775.0,
818.0,4012.0,1422.0,2048.0,11465779.0,
818.0,4011.0,1392.0,2044.0,11465782.0,
818.0,4010.0,1370.0,2045.0,11465786.0,
820.0,4013.0,1356.0,2046.0,11465790.0,
819.0,4010.0,1352.0,2041.0,11465794.0,
819.0,4014.0,1351.0,2045.0,11465798.0,
818.0,4012.0,1358.0,2046.0,11465802.0,
819.0,4013.0,1370.0,2047.0,11465806.0,
819.0,4011.0,1388.0,2045.0,11465810.0,
819.0,4010.0,1412.0,2043.0,11465814.0,
819.0,4011.0,1440.0,2042.0,11465817.0,
817.0,4011.0,1466.0,2044.0,11465821.0,
818.0,4014.0,1498.0,2043.0,11465825.0,
819.0,4011.0,1532.0,2041.0,11465829.0,
820.0,4014.0,1564.0,2040.0,11465833.0,
819.0,4015.0,1602.0,2042.0,11465837.0,
818.0,4012.0,1633.0,2044.0,11465841.0,
818.0,4014.0,1665.0,2043.0,11465845.0,
820.0,4011.0,1695.0,2039.0,11465849.0,
821.0,4014.0,1723.0,2038.0,11465853.0,
820.0,4011.0,1750.0,2037.0,11465856.0,
819.0,4011.0,1770.0,2036.0,11465860.0,
819.0,4014.0,1789.0,2032.0,11465864.0,
819.0,4014.0,1803.0,2032.0,11465868.0,
820.0,4011.0,1817.0,2027.0,11465872.0,
820.0,4013.0,1826.0,2023.0,11465876.0,
819.0,4010.0,1831.0,2017.0,11465880.0,
819.0,4013.0,1837.0,2014.0,11465884.0,
819.0,4014.0,1834.0,2005.0,11465887.0,
820.0,4014.0,1830.0,2004.0,11465891.0,
820.0,4011.0,1824.0,1995.0,11465895.0,
820.0,4011.0,1816.0,1991.0,11465899.0,
819.0,4013.0,1804.0,1993.0,11465903.0,
820.0,4011.0,1790.0,1988.0,11465907.0,
820.0,4015.0,1773.0,1988.0,11465911.0,
820.0,4011.0,1757.0,1987.0,11465915.0,
819.0,4014.0,1732.0,1988.0,11465919.0,
819.0,4011.0,1709.0,1987.0,11465923.0,
820.0,4013.0,1678.0,1987.0,11465926.0,
821.0,4011.0,1651.0,1987.0,11465930.0,
822.0,4013.0,1619.0,1986.0,11465934.0,
820.0,4013.0,1584.0,1984.0,11465938.0,
818.0,4012.0,1555.0,1980.0,11465942.0,
820.0,4014.0,1523.0,1981.0,11465946.0,
821.0,4008.0,1492.0,1978.0,11465950.0,
821.0,4013.0,1461.0,1977.0,11465954.0,
821.0,4011.0,1431.0,1974.0,11465957.0,
820.0,4011.0,1399.0,1972.0,11465961.0,
819.0,4012.0,1366.0,1969.0,11465965.0,
820.0,4014.0,1335.0,1972.0,11465969.0,
821.0,4014.0,1306.0,1967.0,11465973.0,
820.0,4010.0,1277.0,1968.0,11465977.0,
821.0,4011.0,1243.0,1966.0,11465981.0,
820.0,4013.0,1203.0,1965.0,11465987.0,
820.0,4011.0,1174.0,1963.0,11465991.0,
820.0,4013.0,1157.0,1964.0,11465995.0,
820.0,4013.0,1134.0,1967.0,11465999.0,
820.0,4014.0,1116.0,1971.0,11466003.0,
820.0,4013.0,1096.0,1974.0,11466007.0,
822.0,4011.0,1079.0,1973.0,11466011.0,
822.0,4014.0,1063.0,1974.0,11466015.0,
822.0,4011.0,1051.0,1971.0,11466019.0,
819.0,4012.0,1033.0,1967.0,11466022.0,
820.0,4010.0,1021.0,1968.0,11466026.0,
821.0,4014.0,1005.0,1969.0,11466030.0,
821.0,4014.0,994.0,1972.0,11466034.0,
821.0,4014.0,985.0,1969.0,11466038.0,
820.0,4010.0,978.0,1969.0,11466042.0,
821.0,4011.0,969.0,1970.0,11466046.0,
822.0,4010.0,969.0,1971.0,11466050.0,
822.0,4011.0,964.0,1970.0,11466054.0,
822.0,4011.0,965.0,1971.0,11466058.0,
820.0,4010.0,964.0,1970.0,11466061.0,
820.0,4013.0,961.0,1967.0,11466065.0,
822.0,4013.0,963.0,1969.0,11466069.0,
822.0,4014.0,967.0,1969.0,11466073.0,
822.0,4013.0,970.0,1969.0,11466077.0,
820.0,4013.0,972.0,1969.0,11466081.0,
820.0,4013.0,976.0,1969.0,11466085.0,
821.0,4014.0,978.0,1968.0,11466088.0,
823.0,4014.0,983.0,1967.0,11466092.0,
823.0,4010.0,989.0,1966.0,11466096.0,
822.0,4011.0,997.0,1964.0,11466100.0,
821.0,4013.0,1003.0,1965.0,11466104.0,
822.0,4014.0,1009.0,1967.0,11466108.0,
823.0,4014.0,1021.0,1967.0,11466112.0,
823.0,4011.0,1029.0,1961.0,11466116.0,
822.0,4014.0,1037.0,1964.0,11466120.0,
821.0,4011.0,1047.0,1959.0,11466124.0,
822.0,4015.0,1055.0,1957.0,11466127.0,
822.0,4014.0,1062.0,1954.0,11466131.0,
823.0,4013.0,1067.0,1953.0,11466135.0,
823.0,4011.0,1074.0,1946.0,11466139.0,
823.0,4013.0,1077.0,1947.0,11466143.0,
822.0,4014.0,1083.0,1944.0,11466147.0,
823.0,4012.0,1087.0,1944.0,11466151.0,
823.0,4012.0,1090.0,1942.0,11466155.0,
822.0,4012.0,1093.0,1941.0,11466160.0,
823.0,4011.0,1097.0,1939.0,11466164.0,
823.0,4013.0,1099.0,1940.0,11466167.0,
823.0,4012.0,1102.0,1939.0,11466172.0,
823.0,4012.0,1106.0,1940.0,11466175.0,
823.0,4011.0,1105.0,1939.0,11466179.0,
823.0,4014.0,1109.0,1942.0,11466183.0,
824.0,4014.0,1111.0,1940.0,11466187.0,
824.0,4012.0,1114.0,1942.0,11466191.0,
825.0,4014.0,1116.0,1943.0,11466195.0,
824.0,4010.0,1116.0,1941.0,11466199.0,
823.0,4013.0,1115.0,1946.0,11466203.0,
824.0,4015.0,1113.0,1946.0,11466206.0,
824.0,4011.0,1111.0,1948.0,11466210.0,
824.0,4011.0,1112.0,1951.0,11466214.0,
824.0,4014.0,1110.0,1955.0,11466218.0,
823.0,4011.0,1112.0,1959.0,11466222.0,
823.0,4013.0,1110.0,1965.0,11466226.0,
824.0,4011.0,1113.0,1970.0,11466230.0,
825.0,4014.0,1112.0,1978.0,11466233.0,
825.0,4014.0,1118.0,1987.0,11466237.0,
824.0,4014.0,1127.0,1999.0,11466241.0,
824.0,4011.0,1140.0,2008.0,11466245.0,
825.0,4013.0,1153.0,2015.0,11466249.0,
828.0,4012.0,1177.0,2023.0,11466253.0,
826.0,4013.0,1209.0,2030.0,11466257.0,
825.0,4011.0,1248.0,2039.0,11466261.0,
824.0,4014.0,1297.0,2046.0,11466265.0,
825.0,4011.0,1352.0,2055.0,11466268.0,
826.0,4010.0,1423.0,2060.0,11466272.0,
827.0,4012.0,1506.0,2071.0,11466276.0,
826.0,4013.0,1601.0,2082.0,11466280.0,
825.0,4010.0,1709.0,2090.0,11466284.0,
823.0,4012.0,1827.0,2096.0,11466288.0,
826.0,4011.0,1957.0,2105.0,11466292.0,
826.0,4011.0,2090.0,2109.0,11466296.0,
825.0,4010.0,2241.0,2116.0,11466300.0,
825.0,4011.0,2402.0,2122.0,11466304.0,
825.0,4011.0,2559.0,2127.0,11466307.0,
827.0,4012.0,2721.0,2132.0,11466311.0,
827.0,4010.0,2885.0,2138.0,11466315.0,
827.0,4012.0,3043.0,2141.0,11466319.0,
825.0,4010.0,3209.0,2145.0,11466323.0,
827.0,4010.0,3362.0,2146.0,11466327.0,
827.0,4011.0,3512.0,2148.0,11466330.0,
827.0,4011.0,3654.0,2148.0,11466334.0,
826.0,4013.0,3793.0,2150.0,11466338.0,
827.0,4014.0,3905.0,2150.0,11466342.0,
826.0,4013.0,3915.0,2147.0,11466346.0,
827.0,4013.0,3915.0,2147.0,11466350.0,
828.0,4013.0,3914.0,2145.0,11466354.0,
828.0,4014.0,3915.0,2144.0,11466357.0,
827.0,4011.0,3915.0,2138.0,11466361.0,
826.0,4014.0,3916.0,2134.0,11466365.0,
828.0,4010.0,3915.0,2131.0,11466369.0,
827.0,4012.0,3915.0,2128.0,11466373.0,
828.0,4011.0,3915.0,2123.0,11466377.0,
826.0,4012.0,3916.0,2119.0,11466381.0,
828.0,4010.0,3915.0,2116.0,11466385.0,
828.0,4011.0,3916.0,2111.0,11466388.0,
829.0,4014.0,3916.0,2110.0,11466392.0,
829.0,4010.0,3916.0,2105.0,11466396.0,
829.0,4012.0,3914.0,2102.0,11466400.0,
828.0,4012.0,3916.0,2096.0,11466404.0,
828.0,4014.0,3916.0,2093.0,11466408.0,
829.0,4014.0,3916.0,2089.0,11466412.0,
829.0,4013.0,3916.0,2084.0,11466416.0,
828.0,4016.0,3915.0,2081.0,11466419.0,
829.0,4014.0,3804.0,2075.0,11466423.0,
828.0,4011.0,3697.0,2071.0,11466427.0,
830.0,4011.0,3578.0,2064.0,11466431.0,
829.0,4012.0,3452.0,2060.0,11466435.0,
829.0,4010.0,3326.0,2056.0,11466439.0,
829.0,4011.0,3197.0,2052.0,11466443.0,
829.0,4011.0,3075.0,2046.0,11466447.0,
830.0,4011.0,2948.0,2042.0,11466450.0,
830.0,4013.0,2826.0,2037.0,11466454.0,
830.0,4014.0,2705.0,2036.0,11466458.0,
829.0,4013.0,2583.0,2036.0,11466462.0,
830.0,4010.0,2463.0,2033.0,11466466.0,
831.0,4010.0,2350.0,2035.0,11466470.0,
827.0,4011.0,2238.0,2033.0,11466474.0,
830.0,4010.0,2131.0,2032.0,11466478.0,
830.0,4011.0,2026.0,2032.0,11466481.0,
829.0,4011.0,1929.0,2028.0,11466485.0,
829.0,4010.0,1831.0,2029.0,11466489.0,
830.0,4014.0,1737.0,2029.0,11466493.0,
831.0,4013.0,1644.0,2031.0,11466497.0,
830.0,4011.0,1564.0,2029.0,11466501.0,
831.0,4012.0,1490.0,2030.0,11466505.0,
830.0,4013.0,1427.0,2031.0,11466509.0,
831.0,4011.0,1367.0,2033.0,11466513.0,
831.0,4012.0,1316.0,2035.0,11466517.0,
830.0,4011.0,1269.0,2038.0,11466521.0,
832.0,4013.0,1233.0,2040.0,11466525.0,
831.0,4010.0,1200.0,2041.0,11466528.0,
833.0,4014.0,1177.0,2045.0,11466532.0,
832.0,4015.0,1160.0,2045.0,11466536.0,
831.0,4012.0,1149.0,2046.0,11466540.0,
830.0,4010.0,1145.0,2045.0,11466544.0,
831.0,4012.0,1147.0,2048.0,11466548.0,
832.0,4011.0,1149.0,2050.0,11466552.0,
832.0,4014.0,1162.0,2047.0,11466556.0,
831.0,4010.0,1176.0,2049.0,11466560.0,
831.0,4014.0,1195.0,2045.0,11466563.0,
832.0,4011.0,1217.0,2046.0,11466567.0,
832.0,4013.0,1239.0,2049.0,11466571.0,
833.0,4013.0,1265.0,2044.0,11466575.0,
832.0,4011.0,1296.0,2043.0,11466579.0,
832.0,4013.0,1323.0,2046.0,11466583.0,
832.0,4011.0,1354.0,2042.0,11466587.0,
832.0,4014.0,1390.0,2045.0,11466591.0,
833.0,4009.0,1422.0,2043.0,11466594.0,
832.0,4013.0,1457.0,2044.0,11466598.0,
832.0,4014.0,1490.0,2043.0,11466602.0,
832.0,4011.0,1519.0,2038.0,11466606.0,
833.0,4015.0,1548.0,2039.0,11466610.0,
833.0,4011.0,1575.0,2038.0,11466614.0,
834.0,4015.0,1601.0,2034.0,11466618.0,
832.0,4011.0,1625.0,2035.0,11466622.0,
834.0,4014.0,1648.0,2035.0,11466626.0,
833.0,4010.0,1669.0,2030.0,11466630.0,
833.0,4013.0,1686.0,2034.0,11466633.0,
834.0,4013.0,1697.0,2028.0,11466637.0,
833.0,4011.0,1711.0,2023.0,11466641.0,
833.0,4011.0,1714.0,2018.0,11466645.0,
833.0,4011.0,1717.0,2016.0,11466649.0,
834.0,4015.0,1719.0,2011.0,11466653.0,
835.0,4012.0,1714.0,2012.0,11466657.0,
833.0,4014.0,1705.0,2012.0,11466661.0,
833.0,4013.0,1696.0,2010.0,11466664.0,
833.0,4011.0,1682.0,2012.0,11466668.0,
837.0,4013.0,1666.0,2012.0,11466672.0,
836.0,4013.0,1649.0,2011.0,11466676.0,
833.0,4011.0,1630.0,2012.0,11466680.0,
833.0,4013.0,1609.0,2014.0,11466684.0,
834.0,4012.0,1585.0,2012.0,11466688.0,
835.0,4014.0,1562.0,2014.0,11466692.0,
833.0,4012.0,1540.0,2012.0,11466695.0,
834.0,4011.0,1517.0,2014.0,11466699.0,
834.0,4011.0,1487.0,2007.0,11466703.0,
834.0,4011.0,1458.0,2009.0,11466707.0,
835.0,4014.0,1430.0,2010.0,11466711.0,
835.0,4010.0,1402.0,2004.0,11466715.0,
834.0,4013.0,1375.0,2001.0,11466719.0,
834.0,4010.0,1348.0,1999.0,11466723.0,
835.0,4014.0,1321.0,1995.0,11466726.0,
835.0,4012.0,1291.0,1996.0,11466730.0,
836.0,4011.0,1264.0,1995.0,11466735.0,
836.0,4014.0,1239.0,1996.0,11466739.0,
834.0,4009.0,1213.0,1995.0,11466742.0,
835.0,4011.0,1188.0,1996.0,11466746.0,
835.0,4011.0,1166.0,1994.0,11466750.0,
837.0,4014.0,1141.0,1997.0,11466754.0,
835.0,4013.0,1126.0,1994.0,11466758.0,
835.0,4012.0,1102.0,1990.0,11466762.0,
835.0,4014.0,1083.0,1989.0,11466766.0,
835.0,4012.0,1066.0,1990.0,11466770.0,
836.0,4014.0,1050.0,1987.0,11466773.0,
834.0,4010.0,1038.0,1985.0,11466777.0,
836.0,4014.0,1022.0,1985.0,11466781.0,
835.0,4014.0,1015.0,1981.0,11466785.0,
836.0,4011.0,1004.0,1977.0,11466789.0,
837.0,4015.0,994.0,1974.0,11466793.0,
837.0,4014.0,985.0,1972.0,11466797.0,
836.0,4013.0,975.0,1968.0,11466801.0,
836.0,4014.0,968.0,1961.0,11466804.0,
835.0,4014.0,958.0,1959.0,11466808.0,
836.0,4013.0,952.0,1955.0,11466812.0,
836.0,4014.0,947.0,1954.0,11466816.0,
836.0,4014.0,943.0,1954.0,11466820.0,
835.0,4015.0,937.0,1952.0,11466824.0,
836.0,4013.0,933.0,1953.0,11466828.0,
837.0,4013.0,932.0,1953.0,11466831.0,
837.0,4014.0,931.0,1953.0,11466835.0,
836.0,4014.0,932.0,1957.0,11466839.0,
836.0,4013.0,934.0,1957.0,11466843.0,
836.0,4013.0,934.0,1953.0,11466847.0,
837.0,4013.0,938.0,1954.0,11466851.0,
837.0,4013.0,939.0,1954.0,11466855.0,
837.0,4014.0,941.0,1959.0,11466859.0,
835.0,4012.0,943.0,1961.0,11466862.0,
837.0,4014.0,948.0,1961.0,11466866.0,
837.0,4013.0,953.0,1962.0,11466870.0,
837.0,4014.0,958.0,1959.0,11466874.0,
837.0,4011.0,963.0,1959.0,11466878.0,
836.0,4011.0,970.0,1958.0,11466882.0,
837.0,4010.0,978.0,1955.0,11466886.0,
837.0,4012.0,985.0,1953.0,11466890.0,
838.0,4011.0,993.0,1952.0,11466893.0,
837.0,4012.0,999.0,1954.0,11466897.0,
837.0,4013.0,1008.0,1956.0,11466901.0,
837.0,4013.0,1011.0,1957.0,11466905.0,
838.0,4010.0,1018.0,1955.0,11466909.0,
838.0,4014.0,1029.0,1956.0,11466913.0,
839.0,4010.0,1038.0,1955.0,11466917.0,
837.0,4014.0,1046.0,1959.0,11466921.0,
837.0,4009.0,1055.0,1957.0,11466924.0,
838.0,4013.0,1061.0,1961.0,11466928.0,
837.0,4013.0,1067.0,1962.0,11466932.0,
839.0,4012.0,1075.0,1962.0,11466936.0,
838.0,4013.0,1089.0,1965.0,11466940.0,
837.0,4014.0,1095.0,1969.0,11466944.0,
837.0,4010.0,1101.0,1972.0,11466948.0,
838.0,4012.0,1108.0,1972.0,11466952.0,
839.0,4015.0,1112.0,1977.0,11466957.0,
837.0,4011.0,1120.0,1975.0,11466961.0,
837.0,4015.0,1120.0,1980.0,11466964.0,
838.0,4011.0,1123.0,1981.0,11466968.0,
839.0,4010.0,1123.0,1980.0,11466972.0,
840.0,4013.0,1123.0,1981.0,11466976.0,
838.0,4013.0,1123.0,1982.0,11466980.0,
837.0,4014.0,1121.0,1980.0,11466984.0,
838.0,4012.0,1124.0,1982.0,11466988.0,
839.0,4011.0,1122.0,1985.0,11466992.0,
838.0,4010.0,1124.0,1989.0,11466996.0,
840.0,4014.0,1124.0,1995.0,11467000.0,
838.0,4011.0,1125.0,2000.0,11467004.0,
839.0,4013.0,1129.0,2009.0,11467008.0,
840.0,4014.0,1132.0,2018.0,11467012.0,
840.0,4012.0,1138.0,2027.0,11467017.0,
839.0,4012.0,1144.0,2037.0,11467021.0,
838.0,4014.0,1156.0,2046.0,11467025.0,
839.0,4014.0,1173.0,2057.0,11467028.0,
841.0,4011.0,1194.0,2063.0,11467032.0,
840.0,4010.0,1222.0,2071.0,11467036.0,
839.0,4013.0,1258.0,2083.0,11467040.0,
839.0,4013.0,1302.0,2090.0,11467044.0,
839.0,4013.0,1351.0,2099.0,11467048.0,
840.0,4014.0,1415.0,2107.0,11467052.0,
840.0,4014.0,1484.0,2115.0,11467056.0,
840.0,4014.0,1564.0,2119.0,11467060.0,
839.0,4014.0,1648.0,2126.0,11467063.0,
840.0,4013.0,1743.0,2134.0,11467067.0,
841.0,4009.0,1851.0,2134.0,11467071.0,
840.0,4012.0,1963.0,2138.0,11467075.0,
841.0,4012.0,2082.0,2141.0,11467079.0,
840.0,4011.0,2203.0,2143.0,11467083.0,
840.0,4012.0,2321.0,2148.0,11467087.0,
841.0,4011.0,2451.0,2149.0,11467090.0,
842.0,4014.0,2576.0,2153.0,11467094.0,
840.0,4013.0,2698.0,2153.0,11467098.0,
840.0,4013.0,2819.0,2151.0,11467102.0,
840.0,4014.0,2935.0,2150.0,11467106.0,
841.0,4013.0,3046.0,2148.0,11467110.0,
842.0,4014.0,3150.0,2148.0,11467113.0,
841.0,4013.0,3246.0,2150.0,11467117.0,
840.0,4010.0,3332.0,2147.0,11467121.0,
840.0,4015.0,3409.0,2147.0,11467125.0,
841.0,4013.0,3474.0,2146.0,11467129.0,
842.0,4014.0,3531.0,2142.0,11467133.0,
842.0,4014.0,3578.0,2135.0,11467137.0,
842.0,4013.0,3612.0,2134.0,11467141.0,
840.0,4014.0,3640.0,2130.0,11467144.0,
840.0,4011.0,3653.0,2123.0,11467148.0,
841.0,4014.0,3657.0,2123.0,11467152.0,
842.0,4011.0,3651.0,2117.0,11467156.0,
841.0,4010.0,3633.0,2117.0,11467160.0,
841.0,4012.0,3608.0,2115.0,11467164.0,
843.0,4012.0,3573.0,2117.0,11467168.0,
843.0,4011.0,3531.0,2113.0,11467171.0,
842.0,4013.0,3478.0,2112.0,11467175.0,
841.0,4013.0,3420.0,2112.0,11467179.0,
843.0,4011.0,3358.0,2109.0,11467183.0,
841.0,4010.0,3291.0,2109.0,11467187.0,
844.0,4012.0,3219.0,2108.0,11467191.0,
844.0,4011.0,3144.0,2110.0,11467194.0,
842.0,4009.0,3066.0,2107.0,11467198.0,
842.0,4011.0,2983.0,2105.0,11467202.0,
842.0,4011.0,2906.0,2102.0,11467206.0,
842.0,4011.0,2825.0,2104.0,11467210.0,
843.0,4010.0,2742.0,2098.0,11467214.0,
843.0,4011.0,2658.0,2095.0,11467218.0,
842.0,4013.0,2574.0,2092.0,11467222.0,
842.0,4010.0,2490.0,2088.0,11467225.0,
843.0,4010.0,2407.0,2084.0,11467229.0,
843.0,4014.0,2327.0,2083.0,11467233.0,
844.0,4011.0,2242.0,2075.0,11467237.0,
842.0,4012.0,2163.0,2068.0,11467241.0,
842.0,4011.0,2084.0,2065.0,11467245.0,
844.0,4011.0,2007.0,2062.0,11467249.0,
843.0,4012.0,1932.0,2060.0,11467253.0,
843.0,4011.0,1866.0,2058.0,11467257.0,
843.0,4011.0,1799.0,2058.0,11467260.0,
842.0,4011.0,1738.0,2057.0,11467264.0,
844.0,4013.0,1677.0,2056.0,11467268.0,
844.0,4012.0,1620.0,2056.0,11467272.0,
845.0,4011.0,1569.0,2058.0,11467276.0,
844.0,4013.0,1521.0,2057.0,11467280.0,
843.0,4014.0,1482.0,2058.0,11467284.0,
843.0,4014.0,1445.0,2057.0,11467288.0,
844.0,4013.0,1411.0,2058.0,11467292.0,
844.0,4014.0,1386.0,2053.0,11467296.0,
844.0,4014.0,1364.0,2055.0,11467300.0,
843.0,4014.0,1344.0,2055.0,11467304.0,
843.0,4014.0,1327.0,2054.0,11467307.0,
844.0,4011.0,1316.0,2057.0,11467311.0,
845.0,4012.0,1311.0,2057.0,11467315.0,
846.0,4014.0,1310.0,2058.0,11467319.0,
844.0,4011.0,1315.0,2055.0,11467323.0,
844.0,4011.0,1322.0,2052.0,11467327.0,
845.0,4010.0,1335.0,2053.0,11467331.0,
847.0,4010.0,1351.0,2052.0,11467335.0,
844.0,4011.0,1369.0,2052.0,11467339.0,
845.0,4012.0,1391.0,2050.0,11467343.0,
845.0,4011.0,1413.0,2049.0,11467347.0,
846.0,4012.0,1437.0,2049.0,11467350.0,
845.0,4013.0,1459.0,2051.0,11467354.0,
845.0,4013.0,1485.0,2051.0,11467358.0,
844.0,4013.0,1508.0,2048.0,11467362.0,
845.0,4011.0,1533.0,2046.0,11467366.0,
846.0,4014.0,1557.0,2047.0,11467370.0,
846.0,4011.0,1579.0,2045.0,11467374.0,
845.0,4013.0,1602.0,2049.0,11467378.0,
845.0,4013.0,1628.0,2051.0,11467381.0,
845.0,4012.0,1651.0,2049.0,11467385.0,
846.0,4011.0,1670.0,2049.0,11467389.0,
847.0,4014.0,1684.0,2048.0,11467393.0,
846.0,4013.0,1699.0,2051.0,11467397.0,
846.0,4013.0,1712.0,2051.0,11467401.0,
846.0,4015.0,1722.0,2050.0,11467405.0,
846.0,4013.0,1729.0,2050.0,11467408.0,
847.0,4014.0,1739.0,2047.0,11467412.0,
847.0,4010.0,1744.0,2049.0,11467416.0,
847.0,4011.0,1746.0,2046.0,11467420.0,
846.0,4013.0,1748.0,2046.0,11467424.0,
846.0,4014.0,1743.0,2045.0,11467428.0,
848.0,4010.0,1735.0,2041.0,11467432.0,
846.0,4016.0,1727.0,2040.0,11467436.0,
847.0,4012.0,1716.0,2039.0,11467440.0,
846.0,4014.0,1705.0,2038.0,11467444.0,
848.0,4012.0,1690.0,2035.0,11467447.0,
848.0,4011.0,1679.0,2034.0,11467451.0,
848.0,4011.0,1665.0,2028.0,11467455.0,
848.0,4011.0,1647.0,2026.0,11467459.0,
846.0,4011.0,1634.0,2022.0,11467463.0,
847.0,4014.0,1617.0,2024.0,11467467.0,
848.0,4011.0,1599.0,2019.0,11467471.0,
848.0,4014.0,1581.0,2019.0,11467475.0,
848.0,4011.0,1562.0,2018.0,11467479.0,
847.0,4015.0,1546.0,2017.0,11467482.0,
848.0,4011.0,1525.0,2011.0,11467486.0,
848.0,4011.0,1503.0,2013.0,11467490.0,
849.0,4013.0,1481.0,2015.0,11467494.0,
848.0,4013.0,1460.0,2017.0,11467498.0,
848.0,4011.0,1435.0,2013.0,11467502.0,
848.0,4014.0,1414.0,2018.0,11467506.0,
848.0,4011.0,1395.0,2014.0,11467510.0,
850.0,4014.0,1375.0,2012.0,11467514.0,
849.0,4012.0,1355.0,2007.0,11467518.0,
848.0,4014.0,1334.0,2007.0,11467522.0,
848.0,4011.0,1314.0,2004.0,11467526.0,
849.0,4014.0,1292.0,2006.0,11467530.0,
849.0,4012.0,1277.0,2002.0,11467534.0,
849.0,4013.0,1258.0,2003.0,11467537.0,
847.0,4014.0,1239.0,2000.0,11467542.0,
848.0,4011.0,1225.0,1995.0,11467545.0,
849.0,4011.0,1213.0,1993.0,11467549.0,
850.0,4016.0,1202.0,1992.0,11467553.0,
850.0,4013.0,1191.0,1988.0,11467557.0,
849.0,4010.0,1177.0,1990.0,11467561.0,
849.0,4014.0,1167.0,1985.0,11467565.0,
849.0,4012.0,1158.0,1986.0,11467569.0,
851.0,4014.0,1148.0,1981.0,11467573.0,
850.0,4012.0,1137.0,1978.0,11467576.0,
850.0,4013.0,1128.0,1981.0,11467580.0,
849.0,4014.0,1119.0,1976.0,11467584.0,
850.0,4012.0,1112.0,1976.0,11467588.0,
850.0,4010.0,1108.0,1972.0,11467592.0,
850.0,4014.0,1102.0,1977.0,11467596.0,
849.0,4010.0,1099.0,1974.0,11467600.0,
850.0,4015.0,1097.0,1975.0,11467604.0,
852.0,4011.0,1098.0,1974.0,11467608.0,
850.0,4014.0,1102.0,1974.0,11467612.0,
851.0,4012.0,1105.0,1974.0,11467616.0,
850.0,4013.0,1108.0,1975.0,11467619.0,
850.0,4013.0,1114.0,1973.0,11467623.0,
850.0,4011.0,1119.0,1972.0,11467627.0,
851.0,4014.0,1124.0,1975.0,11467631.0,
851.0,4013.0,1125.0,1974.0,11467635.0,
851.0,4014.0,1134.0,1972.0,11467639.0,
851.0,4011.0,1136.0,1970.0,11467643.0,
850.0,4014.0,1141.0,1969.0,11467647.0,
851.0,4012.0,1147.0,1971.0,11467651.0,
851.0,4014.0,1152.0,1970.0,11467654.0,
851.0,4012.0,1155.0,1967.0,11467658.0,
851.0,4013.0,1156.0,1968.0,11467662.0,
850.0,4011.0,1164.0,1967.0,11467666.0,
851.0,4014.0,1164.0,1968.0,11467670.0,
853.0,4012.0,1169.0,1967.0,11467674.0,
851.0,4014.0,1169.0,1972.0,11467678.0,
853.0,4011.0,1176.0,1969.0,11467681.0,
851.0,4015.0,1177.0,1971.0,11467685.0,
852.0,4012.0,1182.0,1976.0,11467689.0,
852.0,4015.0,1186.0,1975.0,11467693.0,
853.0,4012.0,1190.0,1973.0,11467697.0,
851.0,4014.0,1192.0,1973.0,11467700.0,
851.0,4014.0,1195.0,1969.0,11467704.0,
853.0,4013.0,1201.0,1971.0,11467708.0,
852.0,4013.0,1201.0,1970.0,11467712.0,
853.0,4011.0,1201.0,1967.0,11467716.0,
852.0,4014.0,1207.0,1971.0,11467720.0,
852.0,4010.0,1206.0,1969.0,11467724.0,
852.0,4014.0,1208.0,1973.0,11467727.0,
854.0,4011.0,1213.0,1974.0,11467731.0,
852.0,4013.0,1216.0,1975.0,11467735.0,
852.0,4014.0,1214.0,1974.0,11467739.0,
853.0,4012.0,1219.0,1974.0,11467743.0,
852.0,4014.0,1214.0,1976.0,11467747.0,
853.0,4011.0,1214.0,1977.0,11467751.0,
853.0,4012.0,1214.0,1980.0,11467755.0,
852.0,4011.0,1216.0,1980.0,11467758.0,
852.0,4013.0,1213.0,1983.0,11467762.0,
853.0,4011.0,1217.0,1991.0,11467766.0,
855.0,4010.0,1219.0,1997.0,11467770.0,
854.0,4014.0,1220.0,2005.0,11467774.0,
854.0,4011.0,1226.0,2013.0,11467778.0,
853.0,4013.0,1227.0,2024.0,11467782.0,
854.0,4011.0,1233.0,2033.0,11467786.0,
854.0,4015.0,1239.0,2039.0,11467790.0,
855.0,4010.0,1250.0,2046.0,11467794.0,
854.0,4013.0,1264.0,2054.0,11467797.0,
853.0,4012.0,1281.0,2065.0,11467801.0,
855.0,4013.0,1304.0,2075.0,11467805.0,
855.0,4011.0,1331.0,2083.0,11467809.0,
855.0,4015.0,1362.0,2095.0,11467813.0,
855.0,4014.0,1405.0,2102.0,11467817.0,
853.0,4014.0,1454.0,2111.0,11467821.0,
854.0,4014.0,1511.0,2123.0,11467825.0,
855.0,4014.0,1576.0,2137.0,11467829.0,
856.0,4014.0,1651.0,2146.0,11467832.0,
856.0,4015.0,1731.0,2155.0,11467836.0,
855.0,4013.0,1817.0,2162.0,11467840.0,
854.0,4010.0,1909.0,2170.0,11467844.0,
855.0,4010.0,2008.0,2175.0,11467848.0,
856.0,4012.0,2110.0,2179.0,11467852.0,
855.0,4012.0,2219.0,2183.0,11467856.0,
855.0,4011.0,2331.0,2184.0,11467859.0,
855.0,4012.0,2442.0,2187.0,11467863.0,
855.0,4012.0,2560.0,2192.0,11467867.0,
856.0,4013.0,2668.0,2194.0,11467871.0,
856.0,4011.0,2777.0,2194.0,11467875.0,
856.0,4011.0,2883.0,2198.0,11467879.0,
855.0,4010.0,2984.0,2198.0,11467883.0,
856.0,4010.0,3080.0,2199.0,11467887.0,
857.0,4011.0,3164.0,2201.0,11467891.0,
858.0,4012.0,3237.0,2199.0,11467895.0,
857.0,4010.0,3305.0,2199.0,11467899.0,
856.0,4011.0,3362.0,2198.0,11467902.0,
856.0,4014.0,3412.0,2196.0,11467906.0,
857.0,4011.0,3454.0,2191.0,11467910.0,
857.0,4013.0,3488.0,2191.0,11467914.0,
857.0,4012.0,3509.0,2186.0,11467918.0,
857.0,4011.0,3523.0,2182.0,11467922.0,
857.0,4010.0,3530.0,2174.0,11467926.0,
857.0,4012.0,3528.0,2170.0,11467930.0,
858.0,4012.0,3519.0,2166.0,11467933.0,
858.0,4013.0,3502.0,2161.0,11467937.0,
858.0,4012.0,3478.0,2156.0,11467941.0,
858.0,4012.0,3443.0,2151.0,11467945.0,
858.0,4014.0,3404.0,2150.0,11467949.0,
859.0,4014.0,3360.0,2143.0,11467953.0,
860.0,4014.0,3307.0,2142.0,11467957.0,
857.0,4014.0,3254.0,2138.0,11467961.0,
858.0,4013.0,3194.0,2134.0,11467965.0,
859.0,4013.0,3131.0,2131.0,11467968.0,
859.0,4012.0,3065.0,2127.0,11467972.0,
859.0,4015.0,2997.0,2123.0,11467976.0,
858.0,4014.0,2923.0,2121.0,11467980.0,
858.0,4014.0,2851.0,2117.0,11467984.0,
858.0,4009.0,2774.0,2110.0,11467988.0,
859.0,4015.0,2699.0,2105.0,11467993.0,
858.0,4012.0,2618.0,2101.0,11467997.0,
862.0,4011.0,2539.0,2095.0,11468001.0,
858.0,4013.0,2458.0,2089.0,11468006.0,
859.0,4011.0,2392.0,2088.0,11468009.0,
859.0,4013.0,2321.0,2083.0,11468013.0,
860.0,4011.0,2251.0,2081.0,11468017.0,
858.0,4014.0,2185.0,2079.0,11468021.0,
859.0,4013.0,2123.0,2077.0,11468025.0,
859.0,4013.0,2062.0,2079.0,11468029.0,
861.0,4015.0,2004.0,2073.0,11468033.0,
859.0,4014.0,1952.0,2072.0,11468036.0,
859.0,4013.0,1900.0,2069.0,11468040.0,
860.0,4013.0,1856.0,2070.0,11468044.0,
861.0,4014.0,1808.0,2066.0,11468048.0,
861.0,4014.0,1765.0,2064.0,11468053.0,
860.0,4014.0,1728.0,2066.0,11468057.0,
861.0,4013.0,1695.0,2068.0,11468060.0,
860.0,4015.0,1666.0,2066.0,11468064.0,
861.0,4012.0,1645.0,2068.0,11468068.0,
861.0,4014.0,1622.0,2074.0,11468072.0,
860.0,4013.0,1607.0,2077.0,11468076.0,
861.0,4014.0,1596.0,2077.0,11468080.0,
860.0,4014.0,1588.0,2082.0,11468084.0,
860.0,4014.0,1585.0,2085.0,11468088.0,
862.0,4014.0,1584.0,2086.0,11468091.0,
862.0,4062.0,1588.0,2088.0,11468095.0,
861.0,4013.0,1595.0,2091.0,11468099.0,
860.0,4011.0,1603.0,2093.0,11468103.0,
861.0,4015.0,1614.0,2095.0,11468107.0,
862.0,4014.0,1633.0,2096.0,11468111.0,
861.0,4014.0,1648.0,2102.0,11468115.0,
862.0,4012.0,1665.0,2102.0,11468119.0,
860.0,4014.0,1687.0,2104.0,11468122.0,
861.0,4013.0,1704.0,2104.0,11468126.0,
862.0,4015.0,1729.0,2104.0,11468130.0,
861.0,4012.0,1754.0,2097.0,11468134.0,
862.0,4013.0,1781.0,2095.0,11468138.0,
862.0,4014.0,1803.0,2094.0,11468142.0,
861.0,4013.0,1826.0,2090.0,11468146.0,
862.0,4013.0,1852.0,2088.0,11468150.0,
863.0,4011.0,1874.0,2086.0,11468153.0,
862.0,4012.0,1899.0,2084.0,11468157.0,
862.0,4011.0,1917.0,2081.0,11468161.0,
863.0,4013.0,1934.0,2078.0,11468165.0,
864.0,4014.0,1953.0,2077.0,11468169.0,
864.0,4012.0,1964.0,2077.0,11468173.0,
863.0,4013.0,1977.0,2077.0,11468176.0,
862.0,4014.0,1985.0,2076.0,11468180.0,
862.0,4014.0,1992.0,2075.0,11468184.0,
862.0,4014.0,1996.0,2074.0,11468188.0,
864.0,4013.0,1998.0,2072.0,11468192.0,
864.0,4014.0,2002.0,2071.0,11468196.0,
863.0,4014.0,2001.0,2070.0,11468199.0,
862.0,4014.0,1996.0,2065.0,11468203.0,
862.0,4013.0,1996.0,2067.0,11468207.0,
865.0,4011.0,1988.0,2062.0,11468211.0,
864.0,4011.0,1980.0,2062.0,11468215.0,
864.0,4011.0,1970.0,2063.0,11468219.0,
863.0,4011.0,1956.0,2059.0,11468223.0,
863.0,4012.0,1941.0,2060.0,11468226.0,
865.0,4012.0,1924.0,2058.0,11468230.0,
864.0,4013.0,1908.0,2057.0,11468234.0,
863.0,4013.0,1887.0,2055.0,11468238.0,
863.0,4014.0,1866.0,2051.0,11468242.0,
863.0,4013.0,1847.0,2054.0,11468246.0,
864.0,4014.0,1827.0,2054.0,11468250.0,
864.0,4015.0,1807.0,2049.0,11468253.0,
864.0,4014.0,1789.0,2049.0,11468257.0,
865.0,4011.0,1765.0,2048.0,11468261.0,
864.0,4014.0,1743.0,2048.0,11468265.0,
864.0,4014.0,1721.0,2045.0,11468269.0,
865.0,4011.0,1700.0,2042.0,11468273.0,
864.0,4014.0,1680.0,2044.0,11468277.0,
864.0,4011.0,1659.0,2044.0,11468280.0,
863.0,4011.0,1641.0,2038.0,11468284.0,
865.0,4015.0,1621.0,2042.0,11468288.0,
865.0,4012.0,1600.0,2035.0,11468292.0,
865.0,4013.0,1585.0,2032.0,11468296.0,
864.0,4012.0,1567.0,2033.0,11468300.0,
864.0,4015.0,1549.0,2029.0,11468304.0,
865.0,4012.0,1530.0,2024.0,11468308.0,
866.0,4015.0,1517.0,2022.0,11468312.0,
865.0,4013.0,1497.0,2018.0,11468316.0,
865.0,4011.0,1483.0,2015.0,11468319.0,
863.0,4013.0,1468.0,2014.0,11468323.0,
864.0,4013.0,1459.0,2011.0,11468327.0,
866.0,4011.0,1447.0,2008.0,11468331.0,
867.0,4015.0,1435.0,2009.0,11468335.0,
865.0,4011.0,1421.0,2005.0,11468339.0,
865.0,4014.0,1411.0,2004.0,11468343.0,
866.0,4011.0,1404.0,2002.0,11468347.0,
866.0,4014.0,1395.0,2001.0,11468350.0,
865.0,4012.0,1391.0,1998.0,11468354.0,
865.0,4014.0,1386.0,2000.0,11468358.0,
865.0,4011.0,1382.0,1998.0,11468362.0,
865.0,4014.0,1382.0,1999.0,11468366.0,
866.0,4011.0,1378.0,1996.0,11468370.0,
866.0,4013.0,1377.0,1995.0,11468374.0,
866.0,4011.0,1377.0,1996.0,11468377.0,
864.0,4012.0,1378.0,1996.0,11468381.0,
866.0,4014.0,1382.0,1995.0,11468385.0,
867.0,4014.0,1383.0,1996.0,11468389.0,
867.0,4011.0,1388.0,1994.0,11468393.0,
867.0,4014.0,1391.0,1996.0,11468397.0,
867.0,4009.0,1396.0,1992.0,11468400.0,
866.0,4015.0,1398.0,1999.0,11468404.0,
867.0,4013.0,1397.0,1996.0,11468408.0,
868.0,4010.0,1403.0,1996.0,11468412.0,
867.0,4014.0,1404.0,1996.0,11468416.0,
866.0,4013.0,1408.0,1996.0,11468420.0,
866.0,4015.0,1414.0,1999.0,11468424.0,
866.0,4011.0,1421.0,1996.0,11468428.0,
867.0,4013.0,1424.0,1995.0,11468431.0,
868.0,4011.0,1433.0,1992.0,11468435.0,
866.0,4014.0,1436.0,1992.0,11468439.0,
866.0,4013.0,1439.0,1990.0,11468443.0,
867.0,4014.0,1446.0,1989.0,11468447.0,
867.0,4012.0,1451.0,1986.0,11468450.0,
868.0,4011.0,1457.0,1987.0,11468454.0,
868.0,4011.0,1462.0,1986.0,11468458.0,
867.0,4013.0,1462.0,1983.0,11468462.0,
867.0,4012.0,1469.0,1983.0,11468466.0,
868.0,4014.0,1472.0,1988.0,11468470.0,
868.0,4011.0,1474.0,1984.0,11468474.0,
868.0,4014.0,1480.0,1984.0,11468477.0,
866.0,4011.0,1487.0,1985.0,11468481.0,
867.0,4013.0,1488.0,1985.0,11468485.0,
868.0,4011.0,1495.0,1982.0,11468489.0,
869.0,4013.0,1498.0,1983.0,11468493.0,
870.0,4011.0,1501.0,1982.0,11468497.0,
867.0,4012.0,1502.0,1984.0,11468501.0,
867.0,4011.0,1504.0,1985.0,11468504.0,
868.0,4012.0,1504.0,1986.0,11468508.0,
870.0,4013.0,1502.0,1990.0,11468512.0,
868.0,4010.0,1501.0,1989.0,11468516.0,
868.0,4015.0,1503.0,1990.0,11468520.0,
864.0,4012.0,1500.0,1993.0,11468524.0,
868.0,4012.0,1497.0,1998.0,11468527.0,
869.0,4011.0,1495.0,2000.0,11468531.0,
870.0,4014.0,1492.0,2007.0,11468535.0,
868.0,4013.0,1495.0,2010.0,11468539.0,
866.0,4011.0,1495.0,2018.0,11468543.0,
869.0,4014.0,1496.0,2025.0,11468547.0,
869.0,4011.0,1507.0,2031.0,11468551.0,
870.0,4013.0,1510.0,2041.0,11468554.0,
868.0,4011.0,1522.0,2047.0,11468558.0,
869.0,4013.0,1533.0,2052.0,11468562.0,
869.0,4011.0,1548.0,2064.0,11468566.0,
869.0,4013.0,1571.0,2074.0,11468570.0,
870.0,4010.0,1593.0,2085.0,11468574.0,
869.0,4012.0,1627.0,2094.0,11468578.0,
869.0,4011.0,1661.0,2106.0,11468581.0,
869.0,4013.0,1708.0,2117.0,11468585.0,
870.0,4015.0,1759.0,2126.0,11468589.0,
870.0,4015.0,1818.0,2134.0,11468593.0,
870.0,4012.0,1881.0,2141.0,11468597.0,
870.0,4014.0,1960.0,2150.0,11468601.0,
870.0,4011.0,2044.0,2159.0,11468604.0,
870.0,4014.0,2135.0,2165.0,11468608.0,
871.0,4014.0,2231.0,2174.0,11468612.0,
871.0,4015.0,2333.0,2180.0,11468616.0,
869.0,4014.0,2444.0,2187.0,11468620.0,
870.0,4015.0,2559.0,2191.0,11468624.0,
871.0,4013.0,2671.0,2191.0,11468628.0,
871.0,4013.0,2784.0,2201.0,11468632.0,
872.0,4013.0,2896.0,2202.0,11468635.0,
870.0,4012.0,3008.0,2208.0,11468639.0,
870.0,4010.0,3117.0,2207.0,11468643.0,
870.0,4013.0,3224.0,2208.0,11468647.0,
872.0,4011.0,3324.0,2207.0,11468651.0,
873.0,4012.0,3420.0,2208.0,11468655.0,
871.0,4011.0,3510.0,2206.0,11468658.0,
871.0,4013.0,3597.0,2206.0,11468662.0,
871.0,4011.0,3671.0,2204.0,11468666.0,
872.0,4008.0,3738.0,2204.0,11468670.0,
872.0,4010.0,3794.0,2204.0,11468674.0,
873.0,4010.0,3841.0,2202.0,11468678.0,
870.0,4012.0,3881.0,2201.0,11468682.0,
871.0,4011.0,3904.0,2199.0,11468685.0,
872.0,4015.0,3913.0,2200.0,11468689.0,
873.0,4016.0,3915.0,2198.0,11468693.0,
872.0,4009.0,3913.0,2192.0,11468697.0,
873.0,4011.0,3915.0,2190.0,11468701.0,
872.0,4010.0,3912.0,2184.0,11468705.0,
872.0,4012.0,3877.0,2181.0,11468708.0,
873.0,4010.0,3840.0,2173.0,11468712.0,
872.0,4013.0,3800.0,2171.0,11468716.0,
872.0,4015.0,3753.0,2167.0,11468720.0,
871.0,4014.0,3702.0,2163.0,11468724.0,
873.0,4014.0,3646.0,2156.0,11468728.0,
874.0,4012.0,3591.0,2152.0,11468732.0,
873.0,4013.0,3527.0,2145.0,11468736.0,
875.0,4013.0,3464.0,2141.0,11468739.0,
872.0,4012.0,3397.0,2135.0,11468743.0,
872.0,4013.0,3332.0,2130.0,11468747.0,
873.0,4011.0,3262.0,2123.0,11468751.0,
874.0,4011.0,3194.0,2118.0,11468755.0,
874.0,4011.0,3125.0,2114.0,11468759.0,
873.0,4012.0,3059.0,2110.0,11468763.0,
874.0,4012.0,2991.0,2104.0,11468766.0,
874.0,4014.0,2920.0,2107.0,11468770.0,
873.0,4012.0,2855.0,2102.0,11468774.0,
874.0,4013.0,2784.0,2097.0,11468778.0,
874.0,4013.0,2715.0,2095.0,11468782.0,
873.0,4015.0,2648.0,2090.0,11468786.0,
874.0,4014.0,2585.0,2090.0,11468790.0,
876.0,4014.0,2528.0,2089.0,11468794.0,
875.0,4014.0,2470.0,2086.0,11468797.0,
872.0,4014.0,2409.0,2084.0,11468801.0,
873.0,4011.0,2361.0,2083.0,11468805.0,
874.0,4012.0,2305.0,2081.0,11468809.0,
875.0,4012.0,2259.0,2082.0,11468813.0,
874.0,4011.0,2212.0,2079.0,11468817.0,
874.0,4012.0,2171.0,2081.0,11468821.0,
874.0,4011.0,2132.0,2084.0,11468824.0,
874.0,4012.0,2099.0,2088.0,11468828.0,
875.0,4014.0,2067.0,2087.0,11468832.0,
875.0,4014.0,2041.0,2089.0,11468836.0,
873.0,4014.0,2017.0,2091.0,11468840.0,
874.0,4011.0,1995.0,2095.0,11468843.0,
875.0,4013.0,1986.0,2097.0,11468847.0,
875.0,4015.0,1975.0,2100.0,11468851.0,
876.0,4011.0,1972.0,2100.0,11468855.0,
874.0,4015.0,1970.0,2109.0,11468859.0,
874.0,4015.0,1974.0,2109.0,11468863.0,
875.0,4013.0,1977.0,2110.0,11468867.0,
875.0,4012.0,1986.0,2114.0,11468870.0,
875.0,4014.0,1997.0,2112.0,11468874.0,
876.0,4011.0,2013.0,2112.0,11468878.0,
874.0,4016.0,2028.0,2112.0,11468882.0,
876.0,4011.0,2046.0,2114.0,11468886.0,
876.0,4011.0,2065.0,2111.0,11468890.0,
877.0,4012.0,2085.0,2112.0,11468894.0,
876.0,4012.0,2108.0,2110.0,11468897.0,
875.0,4014.0,2129.0,2109.0,11468901.0,
875.0,4011.0,2150.0,2109.0,11468905.0,
876.0,4014.0,2174.0,2110.0,11468909.0,
875.0,4014.0,2193.0,2108.0,11468913.0,
875.0,4014.0,2215.0,2107.0,11468917.0,
877.0,4011.0,2232.0,2105.0,11468921.0,
875.0,4011.0,2249.0,2098.0,11468924.0,
876.0,4011.0,2266.0,2095.0,11468928.0,
876.0,4015.0,2278.0,2097.0,11468932.0,
878.0,4010.0,2289.0,2095.0,11468936.0,
876.0,4009.0,2301.0,2095.0,11468940.0,
876.0,4011.0,2310.0,2092.0,11468944.0,
876.0,4010.0,2312.0,2093.0,11468948.0,
879.0,4011.0,2316.0,2092.0,11468951.0,
877.0,4017.0,2321.0,2092.0,11468955.0,
876.0,4013.0,2319.0,2088.0,11468959.0,
879.0,4014.0,2320.0,2088.0,11468963.0,
877.0,4013.0,2316.0,2086.0,11468967.0,
879.0,4014.0,2312.0,2085.0,11468971.0,
878.0,4015.0,2302.0,2083.0,11468975.0,
877.0,4014.0,2293.0,2085.0,11468979.0,
876.0,4013.0,2279.0,2081.0,11468983.0,
876.0,4015.0,2266.0,2079.0,11468986.0,
878.0,4012.0,2251.0,2081.0,11468990.0,
878.0,4014.0,2232.0,2081.0,11468994.0,
877.0,4012.0,2213.0,2076.0,11468998.0,
877.0,4013.0,2197.0,2072.0,11469002.0,
879.0,4011.0,2174.0,2070.0,11469006.0,
878.0,4011.0,2147.0,2065.0,11469009.0,
879.0,4012.0,2125.0,2060.0,11469013.0,
878.0,4014.0,2105.0,2056.0,11469017.0,
877.0,4014.0,2080.0,2050.0,11469021.0,
877.0,4014.0,2053.0,2046.0,11469025.0,
878.0,4015.0,2031.0,2042.0,11469029.0,
880.0,4013.0,2010.0,2034.0,11469033.0,
879.0,4014.0,1986.0,2031.0,11469036.0,
878.0,4013.0,1964.0,2029.0,11469040.0,
878.0,4013.0,1944.0,2026.0,11469044.0,
878.0,4011.0,1921.0,2024.0,11469048.0,
880.0,4014.0,1900.0,2021.0,11469052.0,
879.0,4011.0,1877.0,2020.0,11469056.0,
878.0,4015.0,1859.0,2021.0,11469059.0,
881.0,4014.0,1836.0,2020.0,11469063.0,
878.0,4015.0,1818.0,2020.0,11469067.0,
879.0,4014.0,1798.0,2017.0,11469071.0,
879.0,4015.0,1780.0,2017.0,11469075.0,
879.0,4011.0,1763.0,2016.0,11469079.0,
878.0,4014.0,1750.0,2021.0,11469083.0,
880.0,4012.0,1735.0,2017.0,11469087.0,
879.0,4015.0,1720.0,2020.0,11469091.0,
878.0,4012.0,1706.0,2019.0,11469094.0,
879.0,4012.0,1692.0,2021.0,11469098.0,
878.0,4015.0,1678.0,2023.0,11469102.0,
879.0,4015.0,1666.0,2025.0,11469106.0,
881.0,4012.0,1655.0,2025.0,11469110.0,
880.0,4014.0,1645.0,2025.0,11469114.0,
879.0,4012.0,1643.0,2026.0,11469118.0,
879.0,4014.0,1630.0,2027.0,11469121.0,
878.0,4010.0,1625.0,2024.0,11469125.0,
880.0,4013.0,1619.0,2022.0,11469129.0,
881.0,4014.0,1612.0,2022.0,11469133.0,
880.0,4010.0,1605.0,2020.0,11469137.0,
880.0,4011.0,1603.0,2017.0,11469141.0,
880.0,4015.0,1598.0,2018.0,11469145.0,
880.0,4012.0,1594.0,2014.0,11469149.0,
881.0,4015.0,1591.0,2014.0,11469152.0,
880.0,4011.0,1586.0,2014.0,11469156.0,
880.0,4014.0,1585.0,2012.0,11469160.0,
880.0,4011.0,1586.0,2007.0,11469164.0,
881.0,4013.0,1584.0,2008.0,11469168.0,
882.0,4013.0,1589.0,2004.0,11469172.0,
881.0,4014.0,1589.0,2005.0,11469176.0,
881.0,4010.0,1593.0,2002.0,11469179.0,
881.0,4011.0,1595.0,1998.0,11469183.0,
880.0,4012.0,1596.0,1998.0,11469187.0,
882.0,4014.0,1599.0,1995.0,11469191.0,
881.0,4011.0,1599.0,1998.0,11469195.0,
881.0,4014.0,1602.0,1998.0,11469199.0,
880.0,4012.0,1602.0,1999.0,11469203.0,
882.0,4013.0,1602.0,2003.0,11469206.0,
881.0,4012.0,1601.0,1999.0,11469210.0,
882.0,4015.0,1605.0,2002.0,11469214.0,
882.0,4011.0,1604.0,1999.0,11469218.0,
881.0,4015.0,1606.0,2000.0,11469222.0,
881.0,4012.0,1605.0,1999.0,11469226.0,
882.0,4014.0,1607.0,2001.0,11469229.0,
882.0,4012.0,1614.0,1993.0,11469233.0,
881.0,4015.0,1615.0,1995.0,11469237.0,
881.0,4015.0,1620.0,1995.0,11469241.0,
881.0,4013.0,1620.0,1987.0,11469245.0,
883.0,4014.0,1626.0,1991.0,11469249.0,
883.0,4012.0,1629.0,1989.0,11469253.0,
882.0,4014.0,1633.0,1991.0,11469257.0,
882.0,4010.0,1635.0,1991.0,11469260.0,
882.0,4012.0,1633.0,1990.0,11469264.0,
882.0,4013.0,1633.0,1992.0,11469268.0,
884.0,4013.0,1633.0,1993.0,11469272.0,
883.0,4011.0,1634.0,1994.0,11469276.0,
882.0,4014.0,1631.0,1997.0,11469280.0,
881.0,4011.0,1635.0,1996.0,11469284.0,
882.0,4013.0,1632.0,2002.0,11469287.0,
883.0,4011.0,1633.0,2005.0,11469291.0,
883.0,4014.0,1634.0,2014.0,11469295.0,
883.0,4013.0,1639.0,2021.0,11469299.0,
882.0,4014.0,1641.0,2030.0,11469303.0,
883.0,4010.0,1649.0,2035.0,11469307.0,
884.0,4014.0,1653.0,2047.0,11469311.0,
884.0,4013.0,1661.0,2056.0,11469314.0,
883.0,4014.0,1672.0,2069.0,11469318.0,
882.0,4012.0,1689.0,2081.0,11469322.0,
884.0,4012.0,1709.0,2093.0,11469326.0,
883.0,4014.0,1734.0,2108.0,11469330.0,
884.0,4014.0,1770.0,2120.0,11469334.0,
884.0,4013.0,1812.0,2129.0,11469338.0,
882.0,4011.0,1861.0,2142.0,11469342.0,
882.0,4012.0,1919.0,2154.0,11469346.0,
883.0,4011.0,1989.0,2166.0,11469349.0,
884.0,4012.0,2069.0,2172.0,11469353.0,
883.0,4011.0,2158.0,2182.0,11469357.0,
883.0,4016.0,2253.0,2191.0,11469361.0,
884.0,4014.0,2357.0,2198.0,11469365.0,
884.0,4015.0,2475.0,2205.0,11469369.0,
884.0,4014.0,2594.0,2207.0,11469373.0,
884.0,4014.0,2722.0,2211.0,11469377.0,
883.0,4015.0,2858.0,2218.0,11469381.0,
883.0,4015.0,2998.0,2225.0,11469384.0,
884.0,4012.0,3136.0,2223.0,11469388.0,
885.0,4013.0,3278.0,2230.0,11469392.0,
885.0,4014.0,3420.0,2233.0,11469396.0,
883.0,4014.0,3559.0,2236.0,11469400.0,
884.0,4015.0,3699.0,2235.0,11469404.0,
885.0,4015.0,3831.0,2241.0,11469408.0,
886.0,4014.0,3915.0,2239.0,11469412.0,
885.0,4014.0,3914.0,2239.0,11469415.0,
884.0,4015.0,3915.0,2240.0,11469419.0,
884.0,4012.0,3915.0,2233.0,11469423.0,
885.0,4014.0,3914.0,2234.0,11469427.0,
886.0,4010.0,3915.0,2230.0,11469431.0,
885.0,4013.0,3916.0,2226.0,11469435.0,
885.0,4011.0,3914.0,2225.0,11469439.0,
885.0,4012.0,3915.0,2223.0,11469443.0,
885.0,4012.0,3915.0,2221.0,11469446.0,
886.0,4012.0,3916.0,2218.0,11469450.0,
886.0,4014.0,3914.0,2215.0,11469454.0,
885.0,4013.0,3915.0,2209.0,11469458.0,
885.0,4012.0,3915.0,2204.0,11469462.0,
886.0,4012.0,3914.0,2198.0,11469466.0,
887.0,4011.0,3915.0,2196.0,11469470.0,
887.0,4012.0,3915.0,2195.0,11469473.0,
886.0,4012.0,3915.0,2191.0,11469477.0,
884.0,4011.0,3915.0,2190.0,11469481.0,
885.0,4012.0,3915.0,2188.0,11469485.0,
887.0,4014.0,3915.0,2185.0,11469489.0,
887.0,4015.0,3915.0,2183.0,11469493.0,
886.0,4013.0,3914.0,2181.0,11469497.0,
886.0,4015.0,3914.0,2177.0,11469501.0,
886.0,4015.0,3915.0,2175.0,11469504.0,
887.0,4015.0,3916.0,2173.0,11469508.0,
887.0,4012.0,3915.0,2166.0,11469512.0,
888.0,4013.0,3914.0,2164.0,11469516.0,
886.0,4014.0,3914.0,2160.0,11469520.0,
886.0,4015.0,3915.0,2156.0,11469524.0,
886.0,4014.0,3914.0,2154.0,11469528.0,
888.0,4014.0,3914.0,2149.0,11469532.0,
887.0,4013.0,3914.0,2144.0,11469535.0,
887.0,4012.0,3806.0,2139.0,11469539.0,
886.0,4014.0,3706.0,2137.0,11469543.0,
886.0,4011.0,3600.0,2134.0,11469547.0,
888.0,4015.0,3489.0,2133.0,11469551.0,
887.0,4012.0,3356.0,2128.0,11469556.0,
887.0,4015.0,3248.0,2124.0,11469560.0,
887.0,4014.0,3144.0,2126.0,11469564.0,
887.0,4014.0,3045.0,2122.0,11469568.0,
888.0,4015.0,2941.0,2119.0,11469572.0,
888.0,4014.0,2845.0,2115.0,11469575.0,
887.0,4014.0,2755.0,2116.0,11469579.0,
887.0,4014.0,2670.0,2116.0,11469583.0,
888.0,4014.0,2590.0,2114.0,11469587.0,
889.0,4015.0,2515.0,2116.0,11469591.0,
888.0,4014.0,2445.0,2116.0,11469595.0,
887.0,4012.0,2389.0,2114.0,11469599.0,
888.0,4013.0,2337.0,2116.0,11469603.0,
888.0,4011.0,2289.0,2118.0,11469607.0,
889.0,4012.0,2248.0,2116.0,11469611.0,
888.0,4011.0,2212.0,2117.0,11469615.0,
888.0,4011.0,2189.0,2117.0,11469619.0,
888.0,4012.0,2170.0,2114.0,11469623.0,
888.0,4011.0,2156.0,2114.0,11469627.0,
889.0,4013.0,2147.0,2113.0,11469631.0,
889.0,4011.0,2144.0,2113.0,11469634.0,
889.0,4012.0,2144.0,2113.0,11469638.0,
888.0,4013.0,2151.0,2114.0,11469642.0,
888.0,4014.0,2161.0,2116.0,11469646.0,
889.0,4014.0,2176.0,2117.0,11469650.0,
890.0,4013.0,2192.0,2118.0,11469654.0,
888.0,4012.0,2212.0,2118.0,11469658.0,
889.0,4011.0,2236.0,2120.0,11469662.0,
889.0,4010.0,2259.0,2119.0,11469666.0,
889.0,4012.0,2281.0,2122.0,11469670.0,
890.0,4011.0,2301.0,2120.0,11469673.0,
889.0,4014.0,2322.0,2124.0,11469677.0,
889.0,4012.0,2343.0,2121.0,11469681.0,
889.0,4012.0,2360.0,2120.0,11469685.0,
890.0,4015.0,2380.0,2118.0,11469689.0,
892.0,4015.0,2398.0,2117.0,11469693.0,
890.0,4014.0,2414.0,2113.0,11469697.0,
889.0,4014.0,2430.0,2113.0,11469701.0,
889.0,4014.0,2441.0,2107.0,11469704.0,
889.0,4014.0,2449.0,2104.0,11469708.0,
890.0,4012.0,2455.0,2098.0,11469712.0,
890.0,4013.0,2456.0,2097.0,11469716.0,
889.0,4013.0,2452.0,2092.0,11469720.0,
889.0,4012.0,2449.0,2088.0,11469724.0,
890.0,4012.0,2437.0,2086.0,11469728.0,
890.0,4012.0,2428.0,2083.0,11469732.0,
891.0,4011.0,2416.0,2080.0,11469736.0,
893.0,4012.0,2403.0,2079.0,11469739.0,
890.0,4012.0,2387.0,2076.0,11469743.0,
891.0,4013.0,2364.0,2077.0,11469747.0,
891.0,4015.0,2349.0,2077.0,11469751.0,
891.0,4013.0,2324.0,2076.0,11469755.0,
890.0,4015.0,2301.0,2075.0,11469759.0,
890.0,4016.0,2277.0,2073.0,11469763.0,
891.0,4015.0,2253.0,2070.0,11469767.0,
890.0,4014.0,2222.0,2070.0,11469770.0,
891.0,4012.0,2196.0,2065.0,11469774.0,
890.0,4015.0,2163.0,2064.0,11469778.0,
890.0,4014.0,2135.0,2062.0,11469782.0,
891.0,4014.0,2105.0,2061.0,11469786.0,
892.0,4016.0,2075.0,2059.0,11469790.0,
891.0,4014.0,2047.0,2058.0,11469794.0,
891.0,4016.0,2017.0,2056.0,11469797.0,
890.0,4012.0,1986.0,2049.0,11469802.0,
890.0,4012.0,1959.0,2047.0,11469805.0,
892.0,4012.0,1931.0,2044.0,11469809.0,
892.0,4013.0,1907.0,2043.0,11469813.0,
891.0,4011.0,1881.0,2041.0,11469817.0,
890.0,4014.0,1857.0,2041.0,11469821.0,
891.0,4011.0,1835.0,2036.0,11469825.0,
891.0,4015.0,1814.0,2036.0,11469829.0,
892.0,4011.0,1790.0,2034.0,11469832.0,
892.0,4011.0,1769.0,2033.0,11469836.0,
891.0,4015.0,1744.0,2035.0,11469840.0,
891.0,4011.0,1726.0,2030.0,11469844.0,
891.0,4015.0,1707.0,2033.0,11469848.0,
892.0,4013.0,1691.0,2032.0,11469852.0,
892.0,4011.0,1673.0,2029.0,11469856.0,
892.0,4012.0,1657.0,2029.0,11469860.0,
892.0,4013.0,1639.0,2031.0,11469864.0,
892.0,4015.0,1626.0,2032.0,11469868.0,
892.0,4012.0,1609.0,2031.0,11469872.0,
891.0,4016.0,1597.0,2034.0,11469876.0,
892.0,4012.0,1581.0,2032.0,11469880.0,
891.0,4014.0,1574.0,2036.0,11469884.0,
892.0,4013.0,1564.0,2036.0,11469887.0,
893.0,4013.0,1557.0,2036.0,11469891.0,
893.0,4012.0,1552.0,2037.0,11469895.0,
892.0,4014.0,1544.0,2038.0,11469899.0,
892.0,4012.0,1540.0,2039.0,11469903.0,
892.0,4015.0,1536.0,2039.0,11469907.0,
893.0,4013.0,1533.0,2038.0,11469911.0,
893.0,4013.0,1533.0,2038.0,11469915.0,
892.0,4012.0,1533.0,2037.0,11469919.0,
893.0,4013.0,1530.0,2037.0,11469922.0,
893.0,4014.0,1532.0,2040.0,11469926.0,
893.0,4015.0,1538.0,2042.0,11469930.0,
893.0,4012.0,1541.0,2041.0,11469934.0,
893.0,4013.0,1546.0,2040.0,11469938.0,
892.0,4011.0,1554.0,2037.0,11469942.0,
892.0,4014.0,1559.0,2037.0,11469946.0,
894.0,4012.0,1561.0,2029.0,11469950.0,
893.0,4013.0,1567.0,2032.0,11469954.0,
894.0,4011.0,1572.0,2028.0,11469957.0,
893.0,4012.0,1578.0,2024.0,11469961.0,
893.0,4014.0,1585.0,2022.0,11469965.0,
893.0,4015.0,1592.0,2022.0,11469969.0,
894.0,4014.0,1597.0,2017.0,11469973.0,
894.0,4011.0,1600.0,2014.0,11469977.0,
893.0,4015.0,1603.0,2010.0,11469981.0,
893.0,4011.0,1608.0,2006.0,11469985.0,
894.0,4016.0,1612.0,2006.0,11469989.0,
894.0,4012.0,1614.0,2004.0,11469992.0,
894.0,4014.0,1612.0,2005.0,11469996.0,
893.0,4014.0,1611.0,2003.0,11470000.0,
893.0,4014.0,1608.0,2004.0,11470004.0,
895.0,4012.0,1606.0,2002.0,11470008.0,
894.0,4014.0,1605.0,2001.0,11470012.0,
894.0,4012.0,1603.0,2002.0,11470016.0,
894.0,4013.0,1598.0,2003.0,11470019.0,
894.0,4014.0,1597.0,2001.0,11470023.0,
894.0,4014.0,1595.0,2008.0,11470027.0,
895.0,4014.0,1589.0,2011.0,11470033.0,
894.0,4015.0,1587.0,2012.0,11470037.0,
894.0,4014.0,1591.0,2017.0,11470041.0,
893.0,4013.0,1587.0,2021.0,11470045.0,
895.0,4014.0,1589.0,2029.0,11470049.0,
896.0,4012.0,1591.0,2035.0,11470053.0,
895.0,4015.0,1594.0,2045.0,11470056.0,
894.0,4015.0,1602.0,2053.0,11470060.0,
894.0,4015.0,1613.0,2064.0,11470064.0,
894.0,4012.0,1632.0,2073.0,11470068.0,
896.0,4011.0,1657.0,2083.0,11470072.0,
894.0,4012.0,1688.0,2094.0,11470076.0,
894.0,4015.0,1733.0,2109.0,11470080.0,
893.0,4012.0,1784.0,2121.0,11470084.0,
895.0,4013.0,1845.0,2136.0,11470088.0,
896.0,4012.0,1921.0,2150.0,11470091.0,
895.0,4012.0,2007.0,2161.0,11470095.0,
895.0,4015.0,2102.0,2175.0,11470099.0,
894.0,4012.0,2207.0,2186.0,11470103.0,
894.0,4012.0,2325.0,2196.0,11470107.0,
895.0,4013.0,2460.0,2203.0,11470111.0,
896.0,4012.0,2619.0,2212.0,11470115.0,
895.0,4014.0,2779.0,2219.0,11470119.0,
894.0,4015.0,2940.0,2224.0,11470123.0,
897.0,4014.0,3109.0,2231.0,11470127.0,
896.0,4015.0,3278.0,2236.0,11470131.0,
896.0,4014.0,3451.0,2241.0,11470135.0,
895.0,4013.0,3623.0,2245.0,11470139.0,
895.0,4014.0,3789.0,2246.0,11470142.0,
896.0,4014.0,3914.0,2248.0,11470146.0,
896.0,4015.0,3915.0,2248.0,11470151.0,
896.0,4014.0,3915.0,2245.0,11470154.0,
897.0,4014.0,3916.0,2240.0,11470158.0,
896.0,4012.0,3915.0,2236.0,11470162.0,
896.0,4015.0,3915.0,2237.0,11470166.0,
897.0,4014.0,3915.0,2235.0,11470170.0,
896.0,4017.0,3915.0,2232.0,11470174.0,
896.0,4012.0,3916.0,2231.0,11470178.0,
896.0,4013.0,3915.0,2228.0,11470182.0,
896.0,4012.0,3916.0,2228.0,11470186.0,
897.0,4011.0,3915.0,2224.0,11470190.0,
897.0,4012.0,3915.0,2222.0,11470194.0,
897.0,4012.0,3916.0,2223.0,11470197.0,
896.0,4011.0,3915.0,2217.0,11470201.0,
896.0,4015.0,3915.0,2219.0,11470205.0,
897.0,4015.0,3915.0,2219.0,11470209.0,
898.0,4015.0,3916.0,2215.0,11470213.0,
897.0,4014.0,3916.0,2214.0,11470217.0,
895.0,4014.0,3915.0,2210.0,11470221.0,
897.0,4015.0,3915.0,2206.0,11470225.0,
897.0,4015.0,3915.0,2201.0,11470228.0,
898.0,4012.0,3916.0,2196.0,11470232.0,
898.0,4013.0,3915.0,2191.0,11470236.0,
897.0,4014.0,3915.0,2188.0,11470240.0,
897.0,4015.0,3915.0,2183.0,11470244.0,
898.0,4015.0,3915.0,2178.0,11470248.0,
899.0,4013.0,3915.0,2178.0,11470252.0,
898.0,4014.0,3916.0,2174.0,11470256.0,
896.0,4015.0,3915.0,2172.0,11470260.0,
897.0,4011.0,3916.0,2170.0,11470264.0,
898.0,4012.0,3916.0,2168.0,11470268.0,
899.0,4013.0,3916.0,2165.0,11470272.0,
898.0,4012.0,3915.0,2165.0,11470276.0,
896.0,4015.0,3916.0,2163.0,11470280.0,
898.0,4011.0,3915.0,2163.0,11470284.0,
898.0,4012.0,3915.0,2159.0,11470288.0,
899.0,4013.0,3916.0,2160.0,11470292.0,
898.0,4012.0,3915.0,2160.0,11470296.0,
897.0,4012.0,3915.0,2158.0,11470299.0,
